time,pelvis_tilt,pelvis_list,pelvis_rotation,pelvis_tx,pelvis_ty,pelvis_tz,hip_flexion_r,hip_adduction_r,hip_rotation_r,knee_angle_r,ankle_angle_r,hip_flexion_l,hip_adduction_l,hip_rotation_l,knee_angle_l,ankle_angle_l,lumbar_extension
8.71000000,0.41914114,2.55610333,-64.02697309,-0.60129389,0.94427786,-0.55122059,19.55385664,-15.62704525,0.00000000,-17.09282743,-9.91234160,2.53531356,-3.75289373,0.00000000,-18.57074230,10.55390745,-5.00000214
8.71500000,0.36168599,2.66248650,-63.82718841,-0.60253082,0.94343878,-0.54786040,19.53970033,-15.54823351,0.00000000,-17.30720060,-9.19273696,2.70037549,-3.96567895,0.00000000,-18.87340645,10.58881165,-5.00000214
8.72000000,0.37716040,2.61582362,-63.67884261,-0.60394117,0.94284823,-0.54470662,19.46507975,-15.44181786,0.00000000,-17.68612524,-8.48489194,2.78957020,-4.16240470,0.00000000,-19.35892775,10.81879714,-5.00000214
8.72500000,0.37377349,2.60557041,-63.52405787,-0.60541526,0.94215961,-0.54139455,19.41160451,-15.31449261,0.00000000,-18.04935281,-7.71040667,2.90589030,-4.37911329,0.00000000,-19.83305079,10.97226275,-5.00000214
8.73000000,0.32851788,2.44010773,-63.40597861,-0.60691099,0.94192785,-0.53803664,19.24015006,-15.04530972,0.00000000,-18.42408097,-7.20321272,2.87896932,-4.71914956,0.00000000,-20.26743643,10.81614447,-5.00000214
8.73500000,0.37061374,2.38940692,-63.28762228,-0.60841604,0.94138365,-0.53473851,19.13043349,-14.92478485,0.00000000,-18.80668230,-6.33300037,2.90359083,-4.91050697,0.00000000,-20.68233857,11.06095263,-5.00000214
8.74000000,0.32724950,2.43562632,-63.32212276,-0.61018992,0.94063871,-0.53174302,19.10348389,-14.71821622,0.00000000,-18.91441162,-5.70963282,3.07820105,-5.12486034,0.00000000,-21.11835839,11.02423458,-5.00000214
8.74500000,0.33415823,2.46700403,-63.33144717,-0.61200534,0.94004261,-0.52870842,19.17328946,-14.53889639,0.00000000,-19.32968744,-4.94009564,3.24216105,-5.30758703,0.00000000,-21.61307262,11.13008973,-5.00000214
8.75000000,0.30365317,2.41825316,-63.35216536,-0.61367735,0.93980533,-0.52544334,19.10740955,-14.28667113,0.00000000,-19.60711709,-4.57825342,3.30204307,-5.55561464,0.00000000,-22.04058843,10.99467736,-5.00000214
8.75500000,0.20381176,2.50665227,-63.34328805,-0.61542851,0.93917073,-0.52210770,19.12883627,-14.02230697,0.00000000,-19.79004822,-3.74102796,3.56845342,-5.82231452,0.00000000,-22.55670451,11.05244840,-5.00000214
8.76000000,0.23194335,2.42595815,-63.46292022,-0.61743978,0.93896364,-0.51936919,19.07908293,-13.77797199,0.00000000,-20.04075754,-3.44983262,3.58397318,-6.00889616,0.00000000,-22.98009421,10.97544742,-5.00000214
8.76500000,0.20602175,2.33370850,-63.46751037,-0.61930556,0.93874632,-0.51630306,18.95197564,-13.49086724,0.00000000,-20.27612277,-2.85314228,3.68891746,-6.29041610,0.00000000,-23.54054890,10.82752253,-5.00000214
8.77000000,0.05905995,2.37600468,-63.49032264,-0.62101886,0.93840472,-0.51291685,18.91969577,-13.15006834,0.00000000,-20.37731130,-2.09415473,3.92195039,-6.61044952,0.00000000,-24.03508725,10.83138076,-5.00000214
8.77500000,-0.04749504,2.27907867,-63.52489660,-0.62284744,0.93824012,-0.50978299,18.78207474,-12.78685976,0.00000000,-20.52306778,-1.66296142,4.09335663,-6.94594307,0.00000000,-24.67435197,10.69047105,-5.00000214
8.78000000,-0.16855821,2.25718907,-63.52208688,-0.62458451,0.93808536,-0.50663477,18.71008526,-12.47649622,0.00000000,-20.65270916,-1.22990805,4.30921088,-7.26778316,0.00000000,-25.21675714,10.47530196,-5.00000214
8.78500000,-0.25173750,2.15033159,-63.56379078,-0.62652149,0.93820377,-0.50350616,18.60433471,-12.14998541,0.00000000,-20.87588548,-0.95761890,4.46020608,-7.58576899,0.00000000,-25.83858465,10.18747501,-5.00000214
8.79000000,-0.52479714,2.14095361,-63.57526351,-0.62848867,0.93810453,-0.50041054,18.58910764,-11.68631565,0.00000000,-20.93232538,-0.61692553,4.82421816,-8.05690817,0.00000000,-26.50241963,10.03470342,-5.00000214
8.79500000,-0.60377419,1.97664513,-63.59803333,-0.63040205,0.93843264,-0.49787309,18.42817358,-11.35378845,0.00000000,-21.07626818,-0.46682258,5.00152735,-8.38710127,0.00000000,-27.19586456,9.63085223,-5.00000214
8.80000000,-0.73741249,1.79177149,-63.67630286,-0.63251902,0.93873009,-0.49490623,18.26615177,-10.93823432,0.00000000,-21.22420429,-0.25758527,5.16567768,-8.77541748,0.00000000,-27.91064919,9.21555370,-5.00000214
8.80500000,-1.19645757,1.84112857,-63.62542721,-0.63423970,0.93872931,-0.49159809,18.23777473,-10.33976657,0.00000000,-21.05057185,-0.10937626,5.75788904,-9.39732072,0.00000000,-28.71663835,8.93003683,-5.00000214
8.81000000,-1.25141844,1.71257694,-63.62854312,-0.63613514,0.93902072,-0.48876527,18.01978501,-10.04872942,0.00000000,-21.09431454,0.14416536,6.00935430,-9.67274732,0.00000000,-29.53740829,8.52430678,-5.00000214
8.81500000,-1.48298851,1.62616434,-63.59241073,-0.63811184,0.93945589,-0.48583189,17.83190588,-9.60655948,0.00000000,-20.99089320,0.21563089,6.40806392,-10.10869715,0.00000000,-30.33843542,7.96041822,-5.00000214
8.82000000,-1.55395136,1.49099618,-63.60575834,-0.63996771,0.93996750,-0.48310860,17.59839554,-9.31324060,0.00000000,-20.98308191,0.37243737,6.68798180,-10.39658615,0.00000000,-31.19532881,7.52663149,-5.00000214
8.82500000,-1.85588483,1.43104454,-63.57161216,-0.64185137,0.94036355,-0.48010814,17.35810602,-8.81125098,0.00000000,-20.68966339,0.48301199,7.19995706,-10.88825958,0.00000000,-32.10108685,7.00630548,-5.00000214
8.83000000,-1.90214858,1.31763377,-63.57225541,-0.64373588,0.94092444,-0.47737087,17.06295363,-8.54668353,0.00000000,-20.55218917,0.61403047,7.52025271,-11.11481925,0.00000000,-32.98861491,6.47729893,-5.00000214
8.83500000,-2.19475414,1.26010106,-63.52752379,-0.64551883,0.94152601,-0.47433879,16.72867941,-8.05172989,0.00000000,-20.10513613,0.68655476,8.05786618,-11.58033168,0.00000000,-33.91313976,5.75207469,-5.00000214
8.84000000,-2.41225670,1.16318735,-63.49167858,-0.64747705,0.94213408,-0.47144502,16.39090473,-7.60762263,0.00000000,-19.75980279,0.69589024,8.56271674,-11.96566924,0.00000000,-34.88537968,5.19688012,-5.00000214
8.84500000,-2.52291725,1.10613048,-63.45373000,-0.64935070,0.94266949,-0.46875429,16.03050173,-7.28017561,0.00000000,-19.37314544,0.86488881,9.08940970,-12.22278955,0.00000000,-35.89779880,4.47094445,-5.00000214
8.85000000,-2.53845789,1.02405939,-63.40142908,-0.65116360,0.94333909,-0.46601093,15.64242985,-7.06470348,0.00000000,-19.06647009,0.95327942,9.56790749,-12.39155518,0.00000000,-36.94213821,3.90687952,-5.00000214
8.85500000,-2.73836057,0.94386724,-63.35837436,-0.65306816,0.94397633,-0.46326928,15.25583008,-6.62937837,0.00000000,-18.60336758,1.05005309,10.16447833,-12.73639709,0.00000000,-37.97848459,3.08121594,-5.00000214
8.86000000,-2.95732391,0.90189182,-63.27765899,-0.65494973,0.94455285,-0.46058641,14.91040299,-6.21102776,0.00000000,-18.10701819,1.01298466,10.86818149,-13.09246933,0.00000000,-39.06253733,2.21125625,-5.00000214
8.86500000,-3.01875841,0.81372506,-63.18988390,-0.65676590,0.94517746,-0.45813908,14.49902397,-5.94633739,0.00000000,-17.68433298,1.15568304,11.46722454,-13.27777914,0.00000000,-40.16662712,1.47204118,-5.00000214
8.87000000,-3.20275050,0.80153197,-63.10287985,-0.65842296,0.94572568,-0.45509753,14.14413457,-5.58378654,0.00000000,-17.21456070,1.15710040,12.16013731,-13.55285325,0.00000000,-41.23749407,0.48319034,-5.00000214
8.87500000,-3.31893453,0.72778677,-62.98386014,-0.66030275,0.94622847,-0.45222200,13.75899334,-5.25318550,0.00000000,-16.82489533,1.17166630,12.78496605,-13.81469396,0.00000000,-42.27580520,-0.33189564,-5.00000214
8.88000000,-3.34092760,0.64301046,-62.89333231,-0.66192796,0.94684783,-0.44972874,13.37829052,-5.03245248,0.00000000,-16.49571016,1.22796025,13.36313726,-13.92496583,0.00000000,-43.34140475,-0.89353071,-5.00000214
8.88500000,-3.47893441,0.58358451,-62.76001460,-0.66385059,0.94752811,-0.44700858,13.00849736,-4.68876993,0.00000000,-16.04984230,1.12309381,14.03061046,-14.19179202,0.00000000,-44.33332906,-1.77191813,-5.00000214
8.89000000,-3.51448637,0.53210688,-62.59899793,-0.66529797,0.94807298,-0.44435328,12.59652202,-4.48040081,0.00000000,-15.62630231,1.21539953,14.65716196,-14.29491838,0.00000000,-45.37346628,-2.23611511,-5.00000214
8.89500000,-3.54845046,0.42990562,-62.43443123,-0.66675008,0.94861972,-0.44184152,12.15576635,-4.25095466,0.00000000,-15.22431511,1.22556831,15.25432807,-14.40543126,0.00000000,-46.41952428,-2.77790888,-5.00000214
8.90000000,-3.58305928,0.37290400,-62.25765756,-0.66822782,0.94917104,-0.43933213,11.79044024,-4.04481670,0.00000000,-14.90943665,1.29209534,15.87294313,-14.48225546,0.00000000,-47.39339737,-3.01570554,-5.00000214
8.90500000,-3.64095245,0.27402064,-62.05970656,-0.66972523,0.94965558,-0.43684549,11.36904578,-3.79215506,0.00000000,-14.51038614,1.31580244,16.48609132,-14.58751522,0.00000000,-48.39640906,-3.28862896,-5.00000214
8.91000000,-3.68368553,0.15042401,-61.96292590,-0.67107316,0.95029184,-0.43478782,11.00981338,-3.55844925,0.00000000,-14.21322554,1.29618826,17.00642850,-14.65005020,0.00000000,-49.26997087,-3.50406774,-5.00000214
8.91500000,-3.69652616,0.09643355,-61.71231669,-0.67250526,0.95061694,-0.43184581,10.56181209,-3.35908359,0.00000000,-13.81980537,1.41362893,17.56887426,-14.69508648,0.00000000,-50.11155116,-3.63081649,-5.00000214
8.92000000,-3.70918153,-0.11415365,-61.58188842,-0.67392968,0.95123821,-0.42999456,10.12344851,-3.10759985,0.00000000,-13.53358682,1.40640077,17.99302523,-14.73639287,0.00000000,-50.94967920,-3.61657050,-5.00000214
8.92500000,-3.73127131,-0.45347804,-61.34647125,-0.67505457,0.95205338,-0.42744250,9.36782952,-2.77744803,0.00000000,-12.98951365,1.26470275,18.23297314,-14.85245033,0.00000000,-51.63648918,-3.45218258,-5.00000214
8.93000000,-3.74589357,-0.46815570,-61.17661269,-0.67623705,0.95251638,-0.42500959,9.05535535,-2.61413734,0.00000000,-12.67832344,1.32274872,18.73075395,-14.75560794,0.00000000,-52.25468832,-3.44658899,-5.00000214
8.93500000,-3.75837024,-0.53849907,-60.98622958,-0.67725798,0.95301906,-0.42257127,8.64504588,-2.43395887,0.00000000,-12.29352261,1.31333744,19.14406115,-14.64553041,0.00000000,-52.77498868,-3.24534030,-5.00000214
8.94000000,-3.76146087,-0.57095266,-60.82350751,-0.67831093,0.95350098,-0.42031009,8.32908890,-2.28398756,0.00000000,-12.00146282,1.32552531,19.58831328,-14.47182447,0.00000000,-53.26553624,-3.10013365,-5.00000214
8.94500000,-3.77353150,-0.60488877,-60.65111519,-0.67908808,0.95390348,-0.41809747,7.96923456,-2.13930591,0.00000000,-11.62371324,1.35628053,19.97484166,-14.25062302,0.00000000,-53.64100074,-2.91359177,-5.00000214
8.95000000,-3.77748831,-0.63978393,-60.44772803,-0.67990140,0.95431049,-0.41604055,7.63346001,-2.00596911,0.00000000,-11.29381289,1.34849915,20.41662783,-14.01270201,0.00000000,-54.05734358,-2.71309742,-5.00000214
8.95500000,-3.77621406,-0.65177017,-60.25980359,-0.68074812,0.95480707,-0.41412791,7.35609983,-1.89079576,0.00000000,-11.01322020,1.29397609,20.83625988,-13.72561795,0.00000000,-54.34969158,-2.48615905,-5.00000214
8.96000000,-3.75849413,-0.65434532,-60.13005966,-0.68156615,0.95521243,-0.41184648,7.09211403,-1.78611901,0.00000000,-10.78112689,1.29766958,21.18489141,-13.38435492,0.00000000,-54.57128798,-2.29826376,-5.00000214
8.96500000,-3.76391343,-0.64755316,-59.95768138,-0.68215966,0.95559272,-0.41015478,6.79881083,-1.69190484,0.00000000,-10.40082356,1.28174583,21.59286027,-13.02652900,0.00000000,-54.77140183,-2.00262402,-5.00000214
8.97000000,-3.76796349,-0.67755595,-59.81037468,-0.68279147,0.95600935,-0.40812938,6.48479718,-1.56378620,0.00000000,-10.07503469,1.20713606,21.88743484,-12.68118676,0.00000000,-54.81036586,-1.69468705,-5.00000214
8.97500000,-3.76923123,-0.62751495,-59.55023980,-0.68333965,0.95631173,-0.40623315,6.23099040,-1.49116669,0.00000000,-9.76197882,1.15377467,22.29591579,-12.27701987,0.00000000,-54.83508535,-1.52180891,-5.00000214
8.98000000,-3.76380740,-0.69909341,-59.42963443,-0.68379411,0.95673022,-0.40414510,5.84498179,-1.36016275,0.00000000,-9.38344900,0.99917427,22.49431225,-11.91236551,0.00000000,-54.78364516,-1.21652301,-5.00000214
8.98500000,-3.76494212,-0.64501503,-59.22493374,-0.68429972,0.95690369,-0.40218445,5.61933416,-1.28967112,0.00000000,-9.10795058,1.08885439,22.84405391,-11.46194560,0.00000000,-54.70263103,-1.00808668,-5.00000214
8.99000000,-3.76963033,-0.61870515,-59.01479199,-0.68465156,0.95712546,-0.40024052,5.37243767,-1.21501521,0.00000000,-8.84382232,1.10766256,23.15526459,-11.00248368,0.00000000,-54.53914782,-0.81551222,-5.00000214
8.99500000,-3.78343382,-0.59662484,-58.77575914,-0.68527020,0.95735051,-0.39848528,5.14772772,-1.11811899,0.00000000,-8.58312593,1.11359323,23.46834637,-10.58923234,0.00000000,-54.33769388,-0.62191946,-5.00000214
9.00000000,-3.77778860,-0.65327831,-58.53928418,-0.68528491,0.95768146,-0.39645899,4.71450634,-1.01406144,0.00000000,-8.13916691,0.93874900,23.62327065,-10.15524855,0.00000000,-54.03026717,-0.46347392,-5.00000214
9.00500000,-3.78204368,-0.60262214,-58.29916719,-0.68555764,0.95781184,-0.39460502,4.48277605,-0.95760704,0.00000000,-7.87054283,1.04014954,23.91287418,-9.68007268,0.00000000,-53.70739573,-0.33357621,-5.00000214
9.01000000,-3.79493915,-0.63028202,-58.04238168,-0.68607686,0.95804079,-0.39284035,4.21692374,-0.83724202,0.00000000,-7.62562779,1.02460695,24.09955340,-9.26808813,0.00000000,-53.28136739,-0.23144008,-5.00000214
9.01500000,-3.79683460,-0.67117232,-57.74110161,-0.68607666,0.95841232,-0.39100608,3.83009697,-0.74633195,0.00000000,-7.22045850,0.86430413,24.22165977,-8.84361311,0.00000000,-52.79086537,-0.13532414,-5.00000214
9.02000000,-3.81020510,-0.63301859,-57.45101673,-0.68625025,0.95851369,-0.38886866,3.57223814,-0.66281341,0.00000000,-6.96391373,0.95585297,24.40869877,-8.38846254,0.00000000,-52.26852561,-0.03983136,-5.00000214
9.02500000,-3.81876644,-0.65172018,-57.16162431,-0.68655478,0.95864259,-0.38726446,3.30415120,-0.56406952,0.00000000,-6.70361108,1.01080937,24.55978155,-7.95381126,0.00000000,-51.71095409,0.10984450,-5.00000214
9.03000000,-3.83844203,-0.65932511,-56.91617383,-0.68661719,0.95882871,-0.38523994,3.02547608,-0.46094968,0.00000000,-6.44293494,1.04497874,24.63214777,-7.54028348,0.00000000,-51.06279355,0.20161084,-5.00000214
9.03500000,-3.84756651,-0.71298713,-56.55967102,-0.68693274,0.95893061,-0.38342532,2.68012567,-0.32665610,0.00000000,-6.13484031,1.06830993,24.70275443,-7.13785948,0.00000000,-50.34166721,0.24907223,-5.00000214
9.04000000,-3.84710302,-0.72640038,-56.25111309,-0.68688721,0.95915680,-0.38145390,2.35296673,-0.24890934,0.00000000,-5.82088701,1.09075982,24.74348906,-6.72249908,0.00000000,-49.60155170,0.38304747,-5.00000214
9.04500000,-3.85668712,-0.77757845,-55.89473315,-0.68706961,0.95945450,-0.37962003,2.02386030,-0.13138736,0.00000000,-5.53778924,1.03563618,24.74047224,-6.35080947,0.00000000,-48.79334442,0.50078685,-5.00000214
9.05000000,-3.86071152,-1.04822710,-55.47784283,-0.68690946,0.95979865,-0.37780518,1.32363891,0.11973000,0.00000000,-4.90806658,0.63869861,24.56342774,-6.11026051,0.00000000,-48.02604738,0.71498481,-5.00000214
9.05500000,-3.86928929,-1.06614512,-55.16620837,-0.68695214,0.95972289,-0.37597359,1.07119478,0.22699005,0.00000000,-4.72131065,0.77123796,24.58666338,-5.69078007,0.00000000,-47.16665718,0.75391642,-5.00000214
9.06000000,-3.87413773,-1.05800049,-54.84951195,-0.68700651,0.95976709,-0.37394251,0.81207676,0.32973385,0.00000000,-4.49430306,0.82319673,24.53786458,-5.31032272,0.00000000,-46.19458281,0.79995452,-5.00000214
9.06500000,-3.86825056,-1.24857501,-54.51953907,-0.68744345,0.95977711,-0.37271141,0.46527388,0.53704142,0.00000000,-4.30196143,0.79058948,24.42909422,-5.04274954,0.00000000,-45.32316059,0.94067048,-5.00000214
9.07000000,-3.88260127,-1.12431942,-54.16283302,-0.68697567,0.95983314,-0.37008037,0.20049338,0.57123001,0.00000000,-3.96369183,0.89703270,24.35976098,-4.59016172,0.00000000,-44.18852140,0.98616183,-5.00000214
9.07500000,-3.87639185,-1.47955614,-53.80692736,-0.68751031,0.96021079,-0.36892459,-0.30933340,0.89015195,0.00000000,-3.71010706,0.52992084,24.09030796,-4.44549924,0.00000000,-43.22496488,1.08598233,-5.00000214
9.08000000,-3.88186976,-1.45331472,-53.48589892,-0.68750154,0.96021208,-0.36705135,-0.49075013,0.98035440,0.00000000,-3.57310615,0.70228425,23.94773813,-4.09026520,0.00000000,-42.06906523,1.17521163,-5.00000214
9.08500000,-3.88428443,-1.45932479,-53.15631808,-0.68708300,0.96013028,-0.36510597,-0.74341540,1.07052888,0.00000000,-3.40338027,0.78537666,23.81265091,-3.73001874,0.00000000,-40.96659890,1.20996441,-5.00000214
9.09000000,-3.88335450,-1.44132768,-52.78123557,-0.68702415,0.96036586,-0.36305871,-1.00383794,1.16683143,0.00000000,-3.13161681,0.58550556,23.60694024,-3.40343692,0.00000000,-39.72307921,1.22929075,-5.00000214
9.09500000,-3.89315101,-1.50574511,-52.46318406,-0.68689922,0.96031858,-0.36097303,-1.25229317,1.32797772,0.00000000,-3.03826963,0.74005203,23.35145831,-3.12040971,0.00000000,-38.46546824,1.24767211,-5.00000214
9.10000000,-3.89482596,-1.50967456,-52.04318399,-0.68664831,0.96010217,-0.35881003,-1.51194703,1.44720737,0.00000000,-2.86859152,0.87747357,23.17852975,-2.82334114,0.00000000,-37.29727893,1.32801782,-5.00000214
9.10500000,-3.89928650,-1.61643032,-51.74711872,-0.68591159,0.95988759,-0.35721488,-1.78692239,1.57874104,0.00000000,-2.78220123,0.95804441,22.89829069,-2.56166638,0.00000000,-36.14938149,1.38683150,-5.00000214
9.11000000,-3.89919544,-1.66272061,-51.40231249,-0.68586927,0.95994856,-0.35485912,-2.02854697,1.74954400,0.00000000,-2.68681341,1.03444744,22.64217944,-2.33245055,0.00000000,-34.97886916,1.33452367,-5.00000214
9.11500000,-3.89860433,-1.72350906,-51.03200273,-0.68569361,0.95986969,-0.35273293,-2.27496498,1.91237185,0.00000000,-2.59777357,1.02553383,22.34234305,-2.11022773,0.00000000,-33.70384972,1.25229851,-5.00000214
9.12000000,-3.89850469,-1.77444381,-50.64712035,-0.68521100,0.95971324,-0.35064885,-2.51301255,2.04848898,0.00000000,-2.52541712,1.14330908,22.03930046,-1.87659485,0.00000000,-32.48694219,1.25732866,-5.00000214
9.12500000,-3.90857633,-1.87700520,-50.28274308,-0.68470707,0.95949855,-0.34860806,-2.76787007,2.23418102,0.00000000,-2.48394089,1.24229073,21.71821965,-1.68291597,0.00000000,-31.32446341,1.26143119,-5.00000214
9.13000000,-3.90417241,-1.95554794,-49.93422137,-0.68435226,0.95921231,-0.34654964,-2.97027524,2.40965783,0.00000000,-2.50004979,1.34569673,21.43020686,-1.49971918,0.00000000,-30.22236649,1.20843685,-5.00000214
9.13500000,-3.90555057,-2.04585865,-49.58779031,-0.68370912,0.95900957,-0.34436614,-3.19931304,2.57759721,0.00000000,-2.51166675,1.49926558,21.06756030,-1.32119800,0.00000000,-29.07837056,1.14750567,-5.00000214
9.14000000,-3.90312302,-2.18027826,-49.21144638,-0.68320838,0.95878605,-0.34240143,-3.42293090,2.77987364,0.00000000,-2.57631282,1.60999540,20.74809049,-1.19414583,0.00000000,-28.06425135,0.95434223,-5.00000214
9.14500000,-3.90880777,-2.25940401,-48.79794915,-0.68290546,0.95848256,-0.34019904,-3.60609162,2.98812304,0.00000000,-2.61454210,1.79943556,20.51188979,-1.06392875,0.00000000,-27.14543309,0.74632534,-5.00000214
9.15000000,-3.90704860,-2.43099713,-48.42412658,-0.68235040,0.95830771,-0.33806277,-3.84308189,3.21658240,0.00000000,-2.72093465,1.99062253,20.15093581,-0.97257735,0.00000000,-26.21346680,0.51555681,-5.00000214
9.15500000,-3.90418431,-2.69204833,-48.14991064,-0.68149351,0.95801170,-0.33644545,-4.06932989,3.46322737,0.00000000,-2.94325153,2.18314814,19.75480937,-0.92301399,0.00000000,-25.40393887,0.32290029,-5.00000214
9.16000000,-3.90617503,-2.80301664,-47.72226742,-0.68089577,0.95777108,-0.33437290,-4.23961160,3.67219953,0.00000000,-3.07328406,2.36023479,19.49879880,-0.81406557,0.00000000,-24.63093992,0.10765041,-5.00000214
9.16500000,-3.91064982,-2.88598058,-47.30646131,-0.68059886,0.95754560,-0.33205371,-4.35061740,3.89264766,0.00000000,-3.25337930,2.57294259,19.21250784,-0.73963337,0.00000000,-23.79671164,-0.25367052,-5.00000214
9.17000000,-3.91034288,-2.98043079,-46.83186859,-0.67983853,0.95710009,-0.33022706,-4.46780562,4.07798646,0.00000000,-3.44957174,2.77755491,19.05043121,-0.61665879,0.00000000,-23.29592967,-0.49127426,-5.00000214
9.17500000,-3.91211963,-3.03128556,-46.36953822,-0.67932008,0.95698496,-0.32813473,-4.52946884,4.25708749,0.00000000,-3.66510335,2.99657558,18.82621010,-0.50853512,0.00000000,-22.69234468,-0.73431618,-5.00000214
9.18000000,-3.91235988,-3.08691521,-45.88100427,-0.67846827,0.95661409,-0.32594099,-4.63549411,4.43354929,0.00000000,-3.84654716,3.22541004,18.64378405,-0.39801636,0.00000000,-22.26289448,-0.90341095,-5.00000214
9.18500000,-3.91546565,-3.16925709,-45.47081018,-0.67827613,0.95633052,-0.32369728,-4.63307270,4.65853687,0.00000000,-4.20108196,3.48015017,18.38970300,-0.37716325,0.00000000,-21.77436983,-1.18770760,-5.00000214
9.19000000,-3.92132005,-3.29274413,-44.99767878,-0.67748604,0.95598040,-0.32166661,-4.71860706,4.88729892,0.00000000,-4.47771009,3.65221799,18.25977721,-0.35002899,0.00000000,-21.62596568,-1.40697317,-5.00000214
9.19500000,-3.92360169,-3.30223663,-44.51502577,-0.67680528,0.95551063,-0.31914674,-4.76671328,5.06229453,0.00000000,-4.69092317,3.72778764,18.12132607,-0.29929852,0.00000000,-21.48764109,-1.47978292,-5.00000214
9.20000000,-3.91966589,-3.43743720,-44.14168820,-0.67630188,0.95544001,-0.31661102,-4.82972840,5.32176501,0.00000000,-5.06220998,4.14090222,17.81049220,-0.36607348,0.00000000,-21.20751453,-1.75930443,-5.00000214
9.20500000,-3.91540001,-3.42029741,-43.62803871,-0.67545706,0.95497863,-0.31436985,-4.85077303,5.45511375,0.00000000,-5.27732375,4.16425320,17.70088193,-0.25960727,0.00000000,-21.14000284,-1.76784635,-5.00000214
9.21000000,-3.91692780,-3.51975019,-43.29996603,-0.67501428,0.95474802,-0.31195732,-4.79157192,5.68401538,0.00000000,-5.79261959,4.55552100,17.44699280,-0.30645220,0.00000000,-20.96979934,-1.69616292,-5.00000214
9.21500000,-3.91491657,-3.50246802,-42.86028480,-0.67395335,0.95432812,-0.30970906,-4.79645093,5.79745100,0.00000000,-6.03050892,4.61705272,17.30037759,-0.20870119,0.00000000,-20.86441888,-1.64463014,-5.00000214
9.22000000,-3.90971348,-3.53279131,-42.69666049,-0.67338109,0.95419313,-0.30719993,-4.61387700,5.94139944,0.00000000,-6.70426257,4.99490963,16.97401635,-0.25942069,0.00000000,-20.51025935,-1.44578226,-5.00000214
9.22500000,-3.90832414,-3.48995909,-42.41897285,-0.67273067,0.95373466,-0.30495017,-4.38036556,6.02172476,0.00000000,-7.37271034,5.52023698,16.84238730,-0.24237633,0.00000000,-20.39862754,-1.16521290,-5.00000214
9.23000000,-3.90467057,-3.50318062,-42.15530030,-0.67197817,0.95331963,-0.30255376,-4.25596398,6.15450036,0.00000000,-7.90512809,5.68709935,16.62801611,-0.28053643,0.00000000,-20.22219210,-0.90535989,-5.00000214
9.23500000,-3.90241465,-3.52055656,-41.84776685,-0.67103470,0.95296862,-0.30005200,-4.22960813,6.28704037,0.00000000,-8.23594144,5.74862668,16.46564075,-0.33637549,0.00000000,-20.13988827,-0.80574866,-5.00000214
9.24000000,-3.89749567,-3.47981082,-41.82467522,-0.67038832,0.95238865,-0.29797696,-3.77183679,6.31763161,0.00000000,-9.35422677,6.50852666,16.41449884,-0.41221040,0.00000000,-20.24663734,-0.28100802,-5.00000214
9.24500000,-3.89492297,-3.51657161,-41.67586399,-0.66958005,0.95202632,-0.29542546,-3.57344353,6.44830333,0.00000000,-10.08398329,6.73408265,16.17273069,-0.50124044,0.00000000,-20.11108490,0.02612285,-5.00000214
9.25000000,-3.88798352,-3.48035673,-41.53381942,-0.66883155,0.95173770,-0.29325755,-3.26148876,6.49821733,0.00000000,-10.88696880,6.99323386,16.06133819,-0.56139836,0.00000000,-20.10902661,0.28880359,-5.00000214
9.25500000,-3.88146283,-3.46119586,-41.38517829,-0.66798635,0.95140607,-0.29127678,-2.93407703,6.54681582,0.00000000,-11.74386561,7.36946730,16.05414406,-0.61594678,0.00000000,-20.31531753,0.54945834,-5.00000214
9.26000000,-3.87600411,-3.46558770,-41.34357124,-0.66723677,0.95109987,-0.28884338,-2.60201727,6.62351273,0.00000000,-12.65378371,7.57510530,15.98009122,-0.72447389,0.00000000,-20.47102898,0.80821575,-5.00000214
9.26500000,-3.87257935,-3.48899044,-41.13729109,-0.66661954,0.95103911,-0.28680160,-2.27255877,6.71908050,0.00000000,-13.51998371,7.59025237,15.91421863,-0.80237756,0.00000000,-20.54958723,0.91389788,-5.00000214
9.27000000,-3.86545950,-3.46749623,-41.03281763,-0.66551675,0.95091777,-0.28513475,-1.86472929,6.71948412,0.00000000,-14.48591654,7.56966653,15.97510023,-0.86371454,0.00000000,-20.86415356,1.02230458,-5.00000214
9.27500000,-3.85901398,-3.41035865,-40.89877813,-0.66481874,0.95085270,-0.28289507,-1.37528874,6.72048762,0.00000000,-15.62326248,7.62884084,15.91166450,-0.87990093,0.00000000,-20.86856886,1.14574076,-5.00000214
9.28000000,-3.84685710,-3.45867094,-40.73211667,-0.66408147,0.95097429,-0.28097229,-0.98831539,6.82489280,0.00000000,-16.57185287,7.55963799,15.85041400,-0.98011370,0.00000000,-21.01276402,1.14659582,-5.00000214
9.28500000,-3.85254510,-3.33262289,-40.52063362,-0.66338563,0.95096919,-0.27931797,-0.31775069,6.77887116,0.00000000,-17.89003153,7.73003610,15.92124034,-0.93202876,0.00000000,-21.07391855,1.22041556,-5.00000214
9.29000000,-3.84216309,-3.43026990,-40.27643418,-0.66275538,0.95137632,-0.27741102,0.06977023,6.92563888,0.00000000,-18.89970296,7.47849238,15.80545196,-1.06744085,0.00000000,-21.14733665,1.19414593,-5.00000214
9.29500000,-3.84792009,-3.29448500,-40.17070800,-0.66238886,0.95150535,-0.27553149,0.86406312,6.86392522,0.00000000,-20.36554982,7.46905285,15.84524201,-1.05321321,0.00000000,-21.19887955,1.21563438,-5.00000214
9.30000000,-3.84128297,-3.37369463,-39.99972524,-0.66167740,0.95192571,-0.27347416,1.34858453,6.98137142,0.00000000,-21.52570842,7.08629078,15.67310318,-1.18386776,0.00000000,-21.18239763,1.25852768,-5.00000214
9.30500000,-3.83790244,-3.40453160,-39.74134897,-0.66085370,0.95225197,-0.27185287,1.91823871,7.04031059,0.00000000,-22.76036628,6.74271796,15.45363739,-1.20839065,0.00000000,-20.94561017,1.26101869,-5.00000214
9.31000000,-3.83551646,-3.22236555,-39.62308676,-0.66060081,0.95271050,-0.27018593,2.83691704,6.92530472,0.00000000,-24.30210667,6.39942037,15.35875150,-1.12795999,0.00000000,-20.65947608,1.13209167,-5.00000214
9.31500000,-3.82903253,-3.36626747,-39.35313031,-0.65985183,0.95333397,-0.26845025,3.33660980,7.08242014,0.00000000,-25.50298993,5.86785042,15.02329543,-1.26328419,0.00000000,-20.34705885,1.09103328,-5.00000214
9.32000000,-3.82418348,-3.10390710,-39.23018185,-0.65921648,0.95373061,-0.26706375,4.35753580,6.83390133,0.00000000,-27.14220930,5.44286994,14.88570378,-1.07317677,0.00000000,-19.90563368,0.90419051,-5.00000214
9.32500000,-3.81030555,-3.16540906,-39.06660186,-0.65855483,0.95431337,-0.26515465,5.01360201,6.88672734,0.00000000,-28.52086605,4.91689117,14.53434841,-1.16146726,0.00000000,-19.53090404,0.94287741,-5.00000214
9.33000000,-3.81900676,-3.17213205,-38.92222575,-0.65802370,0.95459079,-0.26334482,5.85338198,6.89042748,0.00000000,-30.14416391,4.42604507,14.34200951,-1.20257300,0.00000000,-19.30870268,0.90576389,-5.00000214
9.33500000,-3.81330862,-3.19047498,-38.77112150,-0.65773713,0.95501781,-0.26156771,6.67346886,6.90523795,0.00000000,-31.68130957,3.87767963,14.07438774,-1.25965400,0.00000000,-18.96269139,0.89186816,-5.00000214
9.34000000,-3.80751441,-3.18670666,-38.64509457,-0.65710596,0.95521204,-0.25976192,7.50659556,6.87226475,0.00000000,-33.28396601,3.38180185,13.84540130,-1.30289635,0.00000000,-18.71293401,0.93912060,-5.00000214
9.34500000,-3.79914377,-3.07539663,-38.48106056,-0.65685908,0.95552305,-0.25804683,8.46639568,6.80330833,0.00000000,-34.89884731,2.89770660,13.70500343,-1.25842838,0.00000000,-18.45326235,0.86608586,-5.00000214
9.35000000,-3.77943945,-2.83196926,-38.28906683,-0.65647155,0.95550712,-0.25685691,9.56245650,6.49177352,0.00000000,-36.67301704,2.36700983,13.65062582,-1.08026362,0.00000000,-18.14007104,0.65716006,-5.00000214
9.35500000,-3.77081470,-2.60088850,-38.22027943,-0.65613010,0.95561245,-0.25526356,10.65196099,6.21525692,0.00000000,-38.45436067,2.31389185,13.52042815,-0.94219429,0.00000000,-17.75261798,0.51746105,-5.00000214
9.36000000,-3.76024072,-2.46979708,-38.12647903,-0.65610892,0.95545241,-0.25369237,11.69432177,6.04626449,0.00000000,-40.24862480,2.35032848,13.45540486,-0.90600508,0.00000000,-17.57253401,0.48965410,-5.00000214
9.36500000,-3.73434307,-2.58250143,-37.94602394,-0.65554165,0.95575851,-0.25185332,12.30861950,6.07458493,0.00000000,-41.55975366,2.29152330,13.23518314,-1.05841143,0.00000000,-17.49961957,0.52476224,-5.00000214
9.37000000,-3.71579135,-1.97875482,-37.88753634,-0.65543803,0.95513701,-0.25020478,13.72039784,5.44432494,0.00000000,-43.50622739,2.64122588,13.39924957,-0.60654535,0.00000000,-17.21294305,0.37356301,-5.00000214
9.37500000,-3.67849010,-1.56437013,-37.83724263,-0.65530748,0.95518892,-0.24863649,14.85927223,4.95546546,0.00000000,-45.05940362,2.38829507,13.37435701,-0.32726282,0.00000000,-16.84318233,0.15118693,-5.00000214
9.38000000,-3.65275249,-1.06195366,-37.64822893,-0.65505257,0.95469211,-0.24741986,16.07213651,4.34932513,0.00000000,-46.69720213,2.52173247,13.47722916,0.09125944,0.00000000,-16.50056679,-0.00741752,-5.00000214
9.38500000,-3.61610476,-0.61104175,-37.47468250,-0.65471507,0.95436059,-0.24609265,17.17586350,3.76727030,0.00000000,-48.15253173,2.59669871,13.51874828,0.45002810,0.00000000,-16.17160795,-0.21348295,-5.00000214
9.39000000,-3.56431874,-0.26854195,-37.29802197,-0.65435130,0.95384386,-0.24470958,18.14028709,3.25540451,0.00000000,-49.48138384,2.64613892,13.52433345,0.73247440,0.00000000,-15.95885336,-0.22570788,-5.00000214
9.39500000,-3.50980838,-0.36910157,-37.08388302,-0.65391939,0.95406589,-0.24311909,18.60316606,3.15136165,0.00000000,-50.35710664,2.57464939,13.26906890,0.62813419,0.00000000,-15.81957878,-0.21063311,-5.00000214
9.40000000,-3.43086409,0.39891366,-36.97863388,-0.65319354,0.95323176,-0.24172259,19.85930727,2.11724135,0.00000000,-51.72007904,2.53469192,13.47182896,1.31935727,0.00000000,-15.54888934,-0.36718532,-5.00000214
9.40500000,-3.32842264,0.83489124,-36.73307368,-0.65275688,0.95284839,-0.24064832,20.75551264,1.39423881,0.00000000,-52.74649807,2.66972326,13.47721586,1.74964200,0.00000000,-15.27204208,-0.43147334,-5.00000214
9.41000000,-3.23978603,1.29038052,-36.47424329,-0.65214127,0.95263145,-0.23961946,21.61493590,0.62558213,0.00000000,-53.61055950,2.63574800,13.47124402,2.19459961,0.00000000,-14.93312236,-0.67321380,-5.00000214
9.41500000,-3.14954599,1.66627841,-36.22019330,-0.65142305,0.95234583,-0.23864143,22.36675051,-0.09121309,0.00000000,-54.35186445,2.52031879,13.47455284,2.59553722,0.00000000,-14.73354830,-0.67630272,-5.00000214
9.42000000,-3.14201241,1.58008569,-35.86167507,-0.65074163,0.95271996,-0.23727435,22.60653640,-0.27615340,0.00000000,-54.55541514,2.46940176,13.30545630,2.49782113,0.00000000,-14.65980547,-0.71918467,-5.00000214
9.42500000,-2.98271502,1.96940123,-35.67776536,-0.65009853,0.95234926,-0.23604714,23.31796552,-1.09428030,0.00000000,-55.26814789,2.60223904,13.17400200,2.91811221,0.00000000,-14.33155847,-1.02332978,-5.00000214
9.43000000,-2.94235785,2.08961098,-35.37461785,-0.64923598,0.95234466,-0.23491931,23.73773536,-1.54921120,0.00000000,-55.52477420,2.39367368,13.05011796,3.06116857,0.00000000,-14.14764782,-0.97013060,-5.00000214
9.43500000,-2.85736453,2.25186061,-35.09647140,-0.64848367,0.95238551,-0.23366329,24.14021279,-2.09457388,0.00000000,-55.73463293,2.52394142,12.93369892,3.25556143,0.00000000,-14.00673268,-0.96233683,-5.00000214
9.44000000,-2.86430517,2.18297956,-34.68965670,-0.64779849,0.95259045,-0.23237246,24.33141792,-2.31252486,0.00000000,-55.68329461,2.49569326,12.83015941,3.16800055,0.00000000,-14.00601015,-0.98509332,-5.00000214
9.44500000,-2.86220149,2.17201796,-34.37360108,-0.64688090,0.95284802,-0.23093128,24.51800865,-2.63340142,0.00000000,-55.50241807,2.43461270,12.73408056,3.16137533,0.00000000,-13.99792140,-0.93486577,-5.00000214
9.45000000,-2.85575059,2.14458900,-33.97835003,-0.64625154,0.95295745,-0.22985035,24.72025448,-2.94227601,0.00000000,-55.33837678,2.41585930,12.65233466,3.12701380,0.00000000,-13.97016359,-0.91884210,-5.00000214
9.45500000,-2.86414644,2.24417422,-33.51844162,-0.64538238,0.95315941,-0.22886438,24.92859682,-3.37354010,0.00000000,-54.95991012,2.42337063,12.61091214,3.22284142,0.00000000,-13.86519628,-0.94819821,-5.00000214
9.46000000,-2.80960520,2.48373244,-33.11964234,-0.64464272,0.95328049,-0.22769071,25.23993973,-4.01325808,0.00000000,-54.71011743,2.27225229,12.51245521,3.47916392,0.00000000,-13.58720176,-1.27492458,-5.00000214
9.46500000,-2.84427935,2.48018836,-32.69621485,-0.64396450,0.95326959,-0.22615702,25.39638187,-4.30036508,0.00000000,-54.32495975,2.30621650,12.43369272,3.43754348,0.00000000,-13.52913226,-1.20038466,-5.00000214
9.47000000,-2.88244775,2.47191101,-32.26240268,-0.64288887,0.95335325,-0.22470426,25.42216440,-4.62037035,0.00000000,-53.68493789,2.39094011,12.37204670,3.40018558,0.00000000,-13.53435370,-1.09323483,-5.00000214
9.47500000,-2.90070452,2.49938122,-31.78467708,-0.64237724,0.95337730,-0.22356151,25.51594357,-4.96317070,0.00000000,-53.09408033,2.39988428,12.32373756,3.39496851,0.00000000,-13.47169110,-1.08668230,-5.00000214
9.48000000,-2.91896245,2.60211159,-31.27470010,-0.64140233,0.95370870,-0.22240736,25.51282474,-5.42108943,0.00000000,-52.24793261,2.44749036,12.27241384,3.49477666,0.00000000,-13.37478396,-1.09077023,-5.00000214
9.48500000,-2.83791865,2.45821346,-30.81144331,-0.64057687,0.95416432,-0.22078468,25.23232077,-5.64153637,0.00000000,-51.35076974,2.53694703,11.95582327,3.37067258,0.00000000,-13.18795629,-1.31813641,-5.00000214
9.49000000,-2.86789781,2.54041723,-30.35928104,-0.63990577,0.95411408,-0.21935414,25.30055333,-6.05280606,0.00000000,-50.56905457,2.54219231,11.93491093,3.41424273,0.00000000,-13.13407311,-1.22243971,-5.00000214
9.49500000,-2.85190696,2.37666771,-29.89552729,-0.63897720,0.95458521,-0.21788523,24.98266946,-6.23327950,0.00000000,-49.43988491,2.43878720,11.68810126,3.26742312,0.00000000,-13.01837360,-1.14767756,-5.00000214
9.50000000,-2.88149859,2.36566327,-29.39906996,-0.63823102,0.95463734,-0.21653647,24.86136431,-6.52226404,0.00000000,-48.40207362,2.56532044,11.63116560,3.20757596,0.00000000,-12.98815018,-1.29207457,-5.00000214
9.50500000,-2.91415164,2.49718544,-28.91998664,-0.63741253,0.95444189,-0.21519174,24.87983428,-6.98057171,0.00000000,-47.47869939,2.59826724,11.63159939,3.30127617,0.00000000,-12.93658639,-1.16936785,-5.00000214
9.51000000,-2.87517999,2.28189428,-28.46131158,-0.63664729,0.95479222,-0.21361889,24.46461785,-7.09626217,0.00000000,-46.21830308,2.61426441,11.38242207,3.07965117,0.00000000,-12.89024337,-1.11813060,-5.00000214
9.51500000,-2.85432828,2.23418404,-27.92922447,-0.63584017,0.95504249,-0.21213047,24.16680975,-7.37570196,0.00000000,-44.98311049,2.49626606,11.25947149,3.03432035,0.00000000,-12.90100490,-0.96602648,-5.00000214
9.52000000,-2.91777905,2.40327308,-27.46846397,-0.63520909,0.95463111,-0.21097711,24.24932746,-7.81078324,0.00000000,-43.94443401,2.61965664,11.31287762,3.13469765,0.00000000,-12.79525117,-0.91489909,-5.00000214
9.52500000,-2.93277904,2.39328620,-26.90917182,-0.63457136,0.95475025,-0.20983426,24.00898034,-8.12248922,0.00000000,-42.73008144,2.71128957,11.24628161,3.10135903,0.00000000,-12.70505582,-1.09073248,-5.00000214
9.53000000,-2.93850525,2.36620270,-26.45311481,-0.63373591,0.95465320,-0.20842959,23.75684421,-8.37585682,0.00000000,-41.43487583,2.46773226,11.17377018,3.04235136,0.00000000,-12.71957920,-0.94112858,-5.00000214
9.53500000,-3.00938613,2.48892828,-26.01357664,-0.63275300,0.95411503,-0.20656563,23.73253058,-8.73974566,0.00000000,-40.41377364,2.55227710,11.17585773,3.07555217,0.00000000,-12.67157951,-0.77779310,-5.00000214
9.54000000,-2.99260874,2.33272777,-25.41672418,-0.63224407,0.95453510,-0.20569059,23.26394148,-8.90317837,0.00000000,-38.90809156,2.38616263,11.09855038,2.91710243,0.00000000,-12.72197000,-0.89774072,-5.00000214
9.54500000,-2.95671303,2.23325244,-24.96702088,-0.63133997,0.95467889,-0.20412409,22.87318210,-9.08748234,0.00000000,-37.57474868,2.22635157,10.91816790,2.80789943,0.00000000,-12.65537924,-0.58729382,-5.00000214
9.55000000,-3.01367243,2.37405399,-24.41863552,-0.63073548,0.95423078,-0.20277201,22.84599296,-9.48898995,0.00000000,-36.56908234,2.27001166,11.00726265,2.85951533,0.00000000,-12.68520907,-0.57404114,-5.00000214
9.55500000,-3.00273161,2.08555911,-23.87640836,-0.62985644,0.95458443,-0.20122561,22.20207863,-9.44899821,0.00000000,-34.97477615,2.16296088,10.86883838,2.54396308,0.00000000,-12.82273666,-0.53474336,-5.00000214
9.56000000,-3.00852503,2.04581329,-23.34931982,-0.62920003,0.95458711,-0.19977329,21.87156109,-9.64291594,0.00000000,-33.65689486,1.95029790,10.82306861,2.45804460,0.00000000,-12.82524640,-0.47105939,-5.00000214
9.56500000,-3.03657815,2.20140741,-22.84454170,-0.62842015,0.95410588,-0.19832949,21.76775610,-10.03026969,0.00000000,-32.58567539,1.96433064,10.95121494,2.55495748,0.00000000,-12.99639513,-0.33147913,-5.00000214
9.57000000,-3.02632156,1.89705232,-22.21754574,-0.62763574,0.95433303,-0.19674375,21.10460068,-9.93267112,0.00000000,-31.05693486,1.76724550,10.88860630,2.20326082,0.00000000,-13.23603507,-0.19940762,-5.00000214
9.57500000,-3.03917053,1.71645409,-21.72725866,-0.62694034,0.95442398,-0.19496742,20.64550723,-9.90714900,0.00000000,-29.63764286,1.18720437,10.82753513,1.94395136,0.00000000,-13.32092691,-0.00571694,-5.00000214
9.58000000,-3.01044014,1.71000762,-21.17529782,-0.62597768,0.95420233,-0.19350523,20.28536297,-10.15059871,0.00000000,-28.51853881,1.34854910,10.79751525,1.90561117,0.00000000,-13.42636847,0.15843044,-5.00000214
9.58500000,-3.06277718,1.87408570,-20.69690667,-0.62537838,0.95382894,-0.19188320,20.22129122,-10.48539941,0.00000000,-27.56954261,1.34373691,10.91630839,1.98293450,0.00000000,-13.49504033,0.23943949,-5.00000214
9.59000000,-3.02759812,1.61391241,-20.10471206,-0.62443695,0.95392355,-0.19031384,19.56870745,-10.39995194,0.00000000,-26.13789501,0.96988537,10.87320617,1.66669548,0.00000000,-13.80806877,0.57151908,-5.00000214
9.59500000,-3.08082279,1.78502273,-19.63397474,-0.62391082,0.95348963,-0.18883606,19.56108897,-10.74236823,0.00000000,-25.33493993,0.87223518,10.99307247,1.77492138,0.00000000,-13.78283638,0.66252553,-5.00000214
9.60000000,-3.04041000,1.52777852,-19.12970540,-0.62300012,0.95371859,-0.18699550,18.96872343,-10.65040866,0.00000000,-24.08376944,0.66200874,10.94102124,1.43531339,0.00000000,-14.13463304,0.81401259,-5.00000214
9.60500000,-3.07745666,1.69830029,-18.61519169,-0.62229107,0.95328939,-0.18547908,18.88061461,-10.97486906,0.00000000,-23.27410833,0.59583543,11.07919911,1.53738611,0.00000000,-14.25956259,0.91217740,-5.00000214
9.61000000,-3.07093759,1.52344525,-18.15335268,-0.62166786,0.95325962,-0.18376959,18.49876133,-10.94231744,0.00000000,-22.27881482,0.36638131,11.08465697,1.28008304,0.00000000,-14.48017886,1.02204577,-5.00000214
9.61500000,-3.06298814,1.48756469,-17.68929827,-0.62089748,0.95313134,-0.18208318,18.20912141,-11.02631515,0.00000000,-21.36760636,-0.03434345,11.13836813,1.17423889,0.00000000,-14.70141515,1.17667788,-5.00000214
9.62000000,-3.06200425,1.53459182,-17.24839433,-0.62019645,0.95288644,-0.18046209,18.02934496,-11.20758292,0.00000000,-20.63664341,-0.11020530,11.19418390,1.14838631,0.00000000,-14.85066497,1.25034889,-5.00000214
9.62500000,-3.07357095,1.61966988,-16.79427559,-0.61942278,0.95263047,-0.17880762,17.87043630,-11.41767669,0.00000000,-19.98967627,-0.00478271,11.27617646,1.16078362,0.00000000,-14.99286230,1.34187036,-5.00000214
9.63000000,-3.12827258,1.60173627,-16.32566046,-0.61894257,0.95259568,-0.17688506,17.69367210,-11.43256205,0.00000000,-19.29057983,0.07958230,11.39004359,1.02617628,0.00000000,-15.15381340,1.36333955,-5.00000214
9.63500000,-3.10998692,1.52346212,-15.97944273,-0.61845899,0.95252280,-0.17521890,17.50408257,-11.46996126,0.00000000,-18.68344253,-0.31733844,11.44755703,0.85932060,0.00000000,-15.40341882,1.51295006,-5.00000214
9.64000000,-3.14897225,1.53008105,-15.60461165,-0.61768489,0.95231145,-0.17334973,17.36600561,-11.47806479,0.00000000,-18.13351602,-0.13042074,11.48763358,0.75904302,0.00000000,-15.47204392,1.57062148,-5.00000214
9.64500000,-3.13870701,1.43701041,-15.25521187,-0.61705112,0.95219840,-0.17150581,17.17577690,-11.43066082,0.00000000,-17.67833199,-0.06944024,11.48491344,0.56971268,0.00000000,-15.61135592,1.68313591,-5.00000214
9.65000000,-3.13189135,1.47808641,-14.96319772,-0.61662562,0.95198392,-0.16950238,17.09715362,-11.47705418,0.00000000,-17.26387193,-0.18219744,11.47927326,0.50507564,0.00000000,-15.64904852,1.78535825,-5.00000214
9.65500000,-3.11683239,1.42163325,-14.60768562,-0.61605870,0.95197035,-0.16765942,16.90499809,-11.44749573,0.00000000,-16.84140198,-0.33440615,11.48662596,0.35480044,0.00000000,-15.78286624,1.84923607,-5.00000214
9.66000000,-3.11237266,1.46032685,-14.27430933,-0.61552901,0.95183855,-0.16582797,16.80283902,-11.49839413,0.00000000,-16.52858277,-0.34995481,11.50509342,0.29864247,0.00000000,-15.85921896,1.89800881,-5.00000214
9.66500000,-3.11184120,1.38420521,-13.96300732,-0.61493717,0.95173765,-0.16374849,16.62302662,-11.37832864,0.00000000,-16.13750327,-0.49098471,11.53507609,0.10534668,0.00000000,-16.02240678,1.99619005,-5.00000214
9.67000000,-3.09435558,1.43542769,-13.71418392,-0.61456035,0.95158359,-0.16184768,16.64599133,-11.39038515,0.00000000,-16.08331090,-0.52094008,11.51291237,0.04978353,0.00000000,-16.02586439,2.01604022,-5.00000214
9.67500000,-3.08377573,1.39578765,-13.35432536,-0.61415929,0.95154939,-0.16001810,16.44643412,-11.33630111,0.00000000,-15.75832595,-0.67917547,11.61046496,-0.09081305,0.00000000,-16.28636024,2.04983541,-5.00000214
9.68000000,-3.10010038,1.28031833,-13.22827176,-0.61349210,0.95142478,-0.15759916,16.38671217,-11.09710873,0.00000000,-15.60481918,-0.92330123,11.47730655,-0.35629724,0.00000000,-16.16773855,2.18351272,-5.00000214
9.68500000,-3.05455168,1.22013010,-12.87370883,-0.61327424,0.95144785,-0.15561635,16.19726797,-10.98107700,0.00000000,-15.39541453,-1.08907819,11.51887756,-0.52440054,0.00000000,-16.35851220,2.18966902,-5.00000214
9.69000000,-3.03781413,1.28336199,-12.64843971,-0.61282353,0.95128030,-0.15348139,16.20721542,-10.93876639,0.00000000,-15.42982762,-1.15759270,11.48757180,-0.57381242,0.00000000,-16.35818828,2.21440478,-5.00000214
9.69500000,-3.02832977,1.32153606,-12.41261818,-0.61238264,0.95124560,-0.15143422,16.18874295,-10.90169417,0.00000000,-15.46802020,-1.24154460,11.47016560,-0.65119680,0.00000000,-16.38003287,2.23599380,-5.00000214
9.70000000,-3.05632640,1.17329089,-12.14313968,-0.61196093,0.95131080,-0.14938524,15.99983044,-10.61800386,0.00000000,-15.16910887,-1.93655557,11.56717922,-0.94076846,0.00000000,-16.63287560,2.37147479,-5.00000214
9.70500000,-3.05030944,1.22981821,-11.95715475,-0.61145643,0.95126282,-0.14727155,15.98565175,-10.57753541,0.00000000,-15.23268930,-1.96806546,11.53712685,-1.00534400,0.00000000,-16.62320557,2.38605983,-5.00000214
9.71000000,-3.03580692,1.26830719,-11.77685769,-0.61115391,0.95119255,-0.14511379,15.96590726,-10.50884304,0.00000000,-15.31488345,-2.00862173,11.51409302,-1.09156894,0.00000000,-16.63592501,2.39751103,-5.00000214
9.71500000,-3.07028211,1.08316724,-11.68781933,-0.61070559,0.95119148,-0.14266523,15.91207022,-10.17424703,0.00000000,-15.37174747,-2.18477393,11.47945194,-1.44365934,0.00000000,-16.67940599,2.53426208,-5.00000214
9.72000000,-3.05894279,1.14152786,-11.52478450,-0.61038382,0.95104751,-0.14050595,15.89062437,-10.11171529,0.00000000,-15.48124705,-2.21408925,11.45225103,-1.50296666,0.00000000,-16.66572361,2.53991686,-5.00000214
9.72500000,-3.04769665,1.19317699,-11.43517509,-0.60999955,0.95100247,-0.13812006,15.89049293,-10.03956147,0.00000000,-15.64634601,-2.20197210,11.40290626,-1.60372680,0.00000000,-16.65139184,2.53461474,-5.00000214
9.73000000,-3.04755575,1.22769798,-11.37346946,-0.60989047,0.95103033,-0.13574380,15.96026086,-9.94884377,0.00000000,-15.93535548,-1.95935356,11.33369414,-1.69604287,0.00000000,-16.58341105,2.51530232,-5.00000214
9.73500000,-3.03264699,1.26155474,-11.29937244,-0.60954956,0.95082035,-0.13346027,15.95895405,-9.85685749,0.00000000,-16.15543093,-1.64351471,11.33338722,-1.80426580,0.00000000,-16.66261249,2.51693913,-5.00000214
9.74000000,-3.07763080,1.27147294,-11.23090475,-0.60934194,0.95068433,-0.13100786,15.97607341,-9.70174935,0.00000000,-16.27170908,-1.40823474,11.34994766,-1.94908204,0.00000000,-16.67783373,2.58820907,-5.00000214
9.74500000,-3.08287124,1.31894839,-11.12900152,-0.60906200,0.95058030,-0.12884779,15.93525203,-9.63001087,0.00000000,-16.33943665,-1.32991602,11.37020802,-2.02303803,0.00000000,-16.71503460,2.58611542,-5.00000214
9.75000000,-3.12948153,1.29775199,-11.04367308,-0.60879334,0.95053333,-0.12638854,15.89635929,-9.43637958,0.00000000,-16.37249718,-1.09612462,11.40495696,-2.20292501,0.00000000,-16.76679457,2.56531611,-5.00000214
9.75500000,-3.11442296,1.38984284,-11.01894309,-0.60867319,0.95049192,-0.12397811,15.87023783,-9.37841340,0.00000000,-16.39108472,-1.08981741,11.38420926,-2.24620843,0.00000000,-16.78717649,2.56496577,-5.00000214
9.76000000,-3.18265119,1.21586903,-10.95797704,-0.60850638,0.95026386,-0.12154108,15.85980793,-9.02822107,0.00000000,-16.48748580,-0.69189202,11.48584189,-2.59979810,0.00000000,-16.95434163,2.56779544,-5.00000214
9.76500000,-3.24606241,1.09927372,-10.93729718,-0.60844789,0.95009749,-0.11900010,15.88011588,-8.73748208,0.00000000,-16.55571098,-0.49336853,11.60441756,-2.89075876,0.00000000,-17.17427482,2.82588190,-5.00000214
9.77000000,-3.26167058,1.07719017,-10.87087628,-0.60809578,0.95010706,-0.11666181,15.84630186,-8.59409471,0.00000000,-16.63074934,-0.41345158,11.61622232,-3.05033661,0.00000000,-17.21411263,2.81124758,-5.00000214
9.77500000,-3.27441325,0.90994468,-10.83620285,-0.60796909,0.95014669,-0.11412505,15.78638330,-8.26596936,0.00000000,-16.69517033,-0.16030776,11.69225636,-3.37218788,0.00000000,-17.46387884,2.80036013,-5.00000214
9.78000000,-3.31476615,0.78512268,-10.70300444,-0.60785852,0.95011703,-0.11177708,15.69817591,-8.00216980,0.00000000,-16.64003405,-0.04377183,11.86563461,-3.65296159,0.00000000,-17.76946260,2.89960423,-5.00000214
9.78500000,-3.33282833,0.68457277,-10.63912211,-0.60767822,0.95010561,-0.10947979,15.65744987,-7.76768358,0.00000000,-16.69020104,0.09169408,11.91249211,-3.89710463,0.00000000,-17.88632596,2.93161546,-5.00000214
9.79000000,-3.35586993,0.40916922,-10.60693723,-0.60725193,0.95000171,-0.10709372,15.51396214,-7.35519766,0.00000000,-16.63886887,0.15397697,12.02976563,-4.32528304,0.00000000,-18.25409824,3.22798883,-5.00000214
9.79500000,-3.31369323,0.22019486,-10.59221083,-0.60748469,0.95024626,-0.10460680,15.44223341,-7.03048598,0.00000000,-16.74347188,0.29616484,12.07383422,-4.67041796,0.00000000,-18.46971628,3.08082900,-5.00000214
9.80000000,-3.38502849,0.04310699,-10.45974027,-0.60669857,0.95008257,-0.10237249,15.26682759,-6.73898935,0.00000000,-16.58094712,0.47676040,12.20881764,-4.98838820,0.00000000,-18.72906248,3.17502924,-5.00000214
9.80500000,-3.36772544,-0.26346951,-10.35280380,-0.60694859,0.95033133,-0.10003556,15.07572021,-6.29727760,0.00000000,-16.46357608,0.34797002,12.36182029,-5.44286787,0.00000000,-19.13249663,3.34402684,-5.00000214
9.81000000,-3.38847455,-0.37858067,-10.28398573,-0.60623761,0.95011197,-0.09784199,14.95012253,-6.09112495,0.00000000,-16.46301702,0.65353222,12.43569209,-5.67860796,0.00000000,-19.36037573,3.34314535,-5.00000214
9.81500000,-3.36925915,-0.67837212,-10.22621259,-0.60641342,0.95033066,-0.09546215,14.75839235,-5.63255876,0.00000000,-16.30844254,0.41783129,12.64932819,-6.13013414,0.00000000,-19.90423185,3.50958317,-5.00000214
9.82000000,-3.35286550,-0.80181894,-10.10712799,-0.60615292,0.95039785,-0.09322543,14.60669706,-5.39620641,0.00000000,-16.26799171,0.50772457,12.73742208,-6.36748108,0.00000000,-20.18812621,3.41860937,-5.00000214
9.82500000,-3.35821528,-1.01207397,-10.08533009,-0.60587505,0.95029371,-0.09096139,14.49075369,-5.04738598,0.00000000,-16.23520923,0.61771295,12.82899104,-6.71275432,0.00000000,-20.43939163,3.37451742,-5.00000214
9.83000000,-3.37329551,-1.27946972,-9.95474793,-0.60556829,0.95022006,-0.08883862,14.26798190,-4.65784857,0.00000000,-16.03949872,0.63218911,13.05944101,-7.10333153,0.00000000,-20.95896999,3.58878242,-5.00000214
9.83500000,-3.35987159,-1.39806011,-9.87428548,-0.60541052,0.95026718,-0.08668711,14.15493496,-4.41976573,0.00000000,-16.01945103,0.74177700,13.13963566,-7.32189516,0.00000000,-21.17904938,3.49027220,-5.00000214
9.84000000,-3.32718383,-1.52834085,-9.84661417,-0.60509987,0.95029077,-0.08453216,14.01772679,-4.16104778,0.00000000,-15.99256564,0.82754560,13.25169797,-7.54430912,0.00000000,-21.53497803,3.44556661,-5.00000214
9.84500000,-3.37635312,-1.74337661,-9.65731079,-0.60479705,0.95039131,-0.08238484,13.80820135,-3.79622122,0.00000000,-15.72263012,0.77701316,13.47900412,-7.87195868,0.00000000,-21.91839030,3.44663708,-5.00000214
9.85000000,-3.37927827,-1.89024785,-9.56873989,-0.60450041,0.95041673,-0.08032285,13.66705936,-3.53502941,0.00000000,-15.64605982,0.90010333,13.70738787,-8.11211712,0.00000000,-22.40879420,3.52660114,-5.00000214
9.85500000,-3.37066352,-2.09004660,-9.47088012,-0.60408862,0.95056044,-0.07830847,13.46202333,-3.20577192,0.00000000,-15.47292443,0.85010960,13.87809228,-8.37817775,0.00000000,-22.86080078,3.57088389,-5.00000214
9.86000000,-3.32641001,-2.16319077,-9.31775159,-0.60378426,0.95068874,-0.07648242,13.29048624,-3.04639791,0.00000000,-15.41795133,0.99901151,14.03736821,-8.50819155,0.00000000,-23.32847215,3.34019902,-5.00000214
9.86500000,-3.33722231,-2.34550956,-9.20928094,-0.60343633,0.95074981,-0.07446867,13.11796229,-2.73878090,0.00000000,-15.26702054,1.14838788,14.28101508,-8.74503779,0.00000000,-23.87568156,3.40013772,-5.00000214
9.87000000,-3.31338160,-2.43044307,-9.03259546,-0.60311072,0.95076534,-0.07269724,12.95562389,-2.54959094,0.00000000,-15.18058889,1.18378986,14.47054763,-8.85714983,0.00000000,-24.28447216,3.26274963,-5.00000214
9.87500000,-3.32212404,-2.61325540,-8.85694390,-0.60271953,0.95098963,-0.07085384,12.72717158,-2.25839860,0.00000000,-14.93807570,1.16804521,14.69475211,-9.06673233,0.00000000,-24.75141315,3.21284685,-5.00000214
9.88000000,-3.41329990,-2.80565499,-8.53314063,-0.60346624,0.95094726,-0.06841480,12.72181185,-1.86884264,0.00000000,-14.85090071,1.01157006,15.08707366,-9.33398932,0.00000000,-25.14508933,2.94937399,-5.00000214
9.88500000,-3.49431702,-3.04983922,-8.23392407,-0.60421710,0.95085796,-0.06612486,12.70117435,-1.46737375,0.00000000,-14.79706073,1.07976151,15.49199150,-9.64821330,0.00000000,-25.56530653,2.87453689,-5.00000214
9.89000000,-3.55375247,-3.26180888,-7.94160062,-0.60499494,0.95071243,-0.06375239,12.69823196,-1.08082586,0.00000000,-14.76828691,1.13402672,15.93511821,-9.91716871,0.00000000,-26.11426194,2.73517089,-5.00000214
9.89500000,-3.58370716,-3.37373728,-7.54518247,-0.60569205,0.95065235,-0.06163372,12.63414868,-0.82676344,0.00000000,-14.69529780,1.15498982,16.28227625,-10.04319036,0.00000000,-26.50048829,2.60430104,-5.00000214
9.90000000,-3.64731610,-3.49949192,-7.23735346,-0.60638891,0.95047029,-0.05938086,12.64493334,-0.52976391,0.00000000,-14.63099929,1.17655122,16.70664906,-10.19134087,0.00000000,-26.97827802,2.52785261,-5.00000214
9.90500000,-3.69888410,-3.59396176,-6.91320966,-0.60750776,0.95036445,-0.05718020,12.72283888,-0.28803219,0.00000000,-14.66667238,1.17260530,17.11351017,-10.29787923,0.00000000,-27.39597780,2.35559595,-5.00000214
9.91000000,-3.73286496,-3.67905091,-6.56023135,-0.60835398,0.95032798,-0.05492471,12.73195668,-0.05193166,0.00000000,-14.66513333,1.20638069,17.58937275,-10.37834861,0.00000000,-27.93035729,2.05327204,-5.00000214
9.91500000,-3.64586226,-3.54271782,-6.53237757,-0.60555304,0.95099436,-0.05531380,12.27211745,-0.27319914,0.00000000,-14.26052260,1.19833410,17.61762007,-10.02639000,0.00000000,-28.54481270,2.04477174,-5.00000214
9.92000000,-3.47236094,-3.39597080,-6.49488960,-0.60270901,0.95181848,-0.05593481,11.66734289,-0.54285276,0.00000000,-13.77661788,1.13518054,17.53516171,-9.62581913,0.00000000,-29.15893775,2.06004799,-5.00000214
9.92500000,-3.21010929,-3.16811165,-6.42006747,-0.60002202,0.95275594,-0.05669809,11.00364414,-0.91527473,0.00000000,-13.30744338,1.07585789,17.45617934,-9.15388270,0.00000000,-29.82316572,1.93675401,-5.00000214
9.93000000,-3.19568461,-3.17971339,-6.13248765,-0.59974803,0.95309844,-0.05535404,10.82438720,-0.82035639,0.00000000,-13.12133634,1.10356804,17.67172753,-9.07449011,0.00000000,-30.15340855,1.78344090,-5.00000214
9.93500000,-3.18572141,-3.27616159,-5.86104414,-0.59952004,0.95344754,-0.05414104,10.60358071,-0.65421109,0.00000000,-12.85208515,1.01600749,17.99797175,-9.09701804,0.00000000,-30.71722832,1.71149254,-5.00000214
9.94000000,-3.15827449,-3.29284577,-5.64069593,-0.59932900,0.95373462,-0.05288099,10.46238733,-0.55957637,0.00000000,-12.73867706,0.99425329,18.18789259,-9.02125074,0.00000000,-31.05002924,1.65673949,-5.00000214
9.94500000,-3.18772139,-3.36223290,-5.32594026,-0.59901293,0.95390871,-0.05207007,10.25071438,-0.44649877,0.00000000,-12.40726464,0.96299047,18.49617025,-8.95338803,0.00000000,-31.47859987,1.71809851,-5.00000214
9.95000000,-3.17585357,-3.36181295,-5.15947793,-0.59883410,0.95417314,-0.05080755,10.14246861,-0.36402095,0.00000000,-12.32528977,0.93084322,18.60428538,-8.84592145,0.00000000,-31.65999883,1.73115237,-5.00000214
9.95500000,-3.17157414,-3.35969341,-4.96257668,-0.59866922,0.95438851,-0.04984885,9.97723051,-0.31040284,0.00000000,-12.08625397,0.87608355,18.83274170,-8.67939140,0.00000000,-32.04352907,1.76837510,-5.00000214
9.96000000,-3.19112242,-3.35534106,-4.80082779,-0.59846718,0.95467213,-0.04883276,9.86457905,-0.24990429,0.00000000,-11.90506168,0.79242236,18.97362346,-8.51377879,0.00000000,-32.20224610,1.87612750,-5.00000214
9.96500000,-3.19927589,-3.38614495,-4.67261921,-0.59842646,0.95490651,-0.04796041,9.71547821,-0.14718435,0.00000000,-11.60427112,0.41566670,19.15746821,-8.34530678,0.00000000,-32.53538553,2.18258318,-5.00000214
9.97000000,-3.17627060,-3.37596103,-4.52994516,-0.59826801,0.95506471,-0.04714516,9.59018927,-0.12382575,0.00000000,-11.49840129,0.52991693,19.27778167,-8.13385687,0.00000000,-32.70380789,2.23664042,-5.00000214
9.97500000,-3.18071869,-3.30445850,-4.36832905,-0.59795408,0.95532759,-0.04632505,9.47837598,-0.14760624,0.00000000,-11.36050951,0.53111155,19.42018142,-7.84486114,0.00000000,-32.91533515,2.34319619,-5.00000214
9.98000000,-3.24156023,-3.29885974,-4.19195973,-0.59788150,0.95545854,-0.04586215,9.39527363,-0.12833335,0.00000000,-11.11485702,0.47011235,19.80759803,-7.66767701,0.00000000,-33.38488408,2.57136524,-5.00000214
9.98500000,-3.23274005,-3.31292501,-4.19647304,-0.59778579,0.95567112,-0.04471349,9.37063457,-0.03446756,0.00000000,-11.12628837,0.46593558,19.80345442,-7.45649808,0.00000000,-33.37881969,2.58199159,-5.00000214
9.99000000,-3.27246680,-3.20579078,-4.07486029,-0.59740025,0.95595255,-0.04412604,9.26711761,-0.13336267,0.00000000,-10.91557243,0.42584424,19.86079001,-7.10441892,0.00000000,-33.33042484,2.91650774,-5.00000214
9.99500000,-3.23917077,-3.22966171,-4.10463394,-0.59749663,0.95598705,-0.04346331,9.24410153,-0.06097308,0.00000000,-10.92449746,0.42226155,19.89809691,-6.90814415,0.00000000,-33.32191477,2.92330515,-5.00000214
10.00000000,-3.27607148,-3.15095757,-3.97043080,-0.59698044,0.95625666,-0.04275835,9.12585847,-0.11432216,0.00000000,-10.73735247,0.37979396,20.01879494,-6.60175849,0.00000000,-33.42321785,3.17933658,-5.00000214
10.00500000,-3.23578016,-3.11374098,-3.96962826,-0.59685500,0.95635473,-0.04255751,9.05567928,-0.15307496,0.00000000,-10.69433788,0.35364091,20.17731349,-6.36383680,0.00000000,-33.66653866,3.31303745,-5.00000214
10.01000000,-3.22872985,-3.13984997,-3.98389054,-0.59654692,0.95648784,-0.04178155,9.02118554,-0.07568269,0.00000000,-10.70046914,0.35512750,20.19290065,-6.16936444,0.00000000,-33.66060796,3.32229141,-5.00000214
10.01500000,-3.30434844,-3.02039921,-3.85130775,-0.59597730,0.95668162,-0.04138724,8.88998417,-0.18603120,0.00000000,-10.37324399,0.36549323,20.31008212,-5.81946935,0.00000000,-33.61627810,3.70274903,-5.00000214
10.02000000,-3.33573194,-3.05215320,-3.92192566,-0.59563869,0.95673199,-0.04046671,8.87468957,-0.08513894,0.00000000,-10.32287756,0.36459460,20.23072488,-5.61932678,0.00000000,-33.29347393,3.81680075,-5.00000214
10.02500000,-3.32411549,-3.07042456,-3.95163987,-0.59521295,0.95685525,-0.03987897,8.82439962,-0.03533401,0.00000000,-10.33562107,0.36319845,20.25884443,-5.47054445,0.00000000,-33.26782688,3.83019043,-5.00000214
10.03000000,-3.33445653,-3.02396484,-3.93305117,-0.59478761,0.95701575,-0.03926548,8.69566444,-0.04416697,0.00000000,-10.10978166,0.34478173,20.21069367,-5.23287916,0.00000000,-33.03796803,4.03988831,-5.00000214
10.03500000,-3.28946747,-2.99624047,-3.94961024,-0.59435393,0.95719324,-0.03874313,8.55345514,-0.04653725,0.00000000,-9.98429377,0.25745662,20.04218424,-4.99811990,0.00000000,-32.68202975,4.30975944,-5.00000214
10.04000000,-3.32750183,-3.01768700,-3.95855303,-0.59397438,0.95715677,-0.03814055,8.52002542,0.01824003,0.00000000,-9.90546369,0.28482407,20.01398774,-4.83630643,0.00000000,-32.41524571,4.39034917,-5.00000214
10.04500000,-3.32792877,-2.93580948,-3.89457056,-0.59345582,0.95739856,-0.03790063,8.39870699,-0.06259604,0.00000000,-9.75818415,0.25547529,20.03468482,-4.58347871,0.00000000,-32.28733758,4.50599844,-5.00000214
10.05000000,-3.28700923,-2.89190887,-3.91568623,-0.59284028,0.95771708,-0.03716727,8.23069731,-0.06581121,0.00000000,-9.58274999,0.12726952,19.86435999,-4.37278435,0.00000000,-31.93139534,4.61959537,-5.00000214
10.05500000,-3.33589713,-2.90056578,-3.83585229,-0.59234986,0.95776095,-0.03689873,8.17044320,-0.04044484,0.00000000,-9.46116179,0.15355146,19.81687506,-4.18420364,0.00000000,-31.60404515,4.77564113,-5.00000214
10.06000000,-3.35628727,-2.89805136,-3.91275073,-0.59183101,0.95764379,-0.03639524,8.13809794,-0.00992797,0.00000000,-9.41431927,0.15639996,19.62490771,-4.02399902,0.00000000,-31.09452129,4.98860107,-5.00000214
10.06500000,-3.36588655,-2.87576868,-3.85269379,-0.59132784,0.95758230,-0.03628122,8.05814638,-0.03352831,0.00000000,-9.32468061,0.16889060,19.62031804,-3.86398641,0.00000000,-30.90635437,5.13680954,-5.00000214
10.07000000,-3.39442167,-2.90675115,-3.86522203,-0.59090718,0.95757683,-0.03576008,8.02584204,0.03378106,0.00000000,-9.26983539,0.20049838,19.50458053,-3.76436350,0.00000000,-30.46419408,5.28277391,-5.00000214
10.07500000,-3.29664974,-2.76866926,-3.91523478,-0.59000109,0.95812508,-0.03493484,7.80183912,-0.06616825,0.00000000,-9.12049782,0.13594140,19.08128843,-3.48693729,0.00000000,-29.76613506,5.30659638,-5.00000214
10.08000000,-3.36383955,-2.85804830,-3.87780997,-0.58944510,0.95824443,-0.03440640,7.75836918,0.07051939,0.00000000,-8.99329705,0.08673278,18.94978515,-3.45273096,0.00000000,-29.23155747,5.44005149,-5.00000214
10.08500000,-3.38922208,-2.84205441,-3.87190307,-0.58890636,0.95841384,-0.03414318,7.69273241,0.05693627,0.00000000,-8.90330654,0.12995865,18.77112040,-3.35475562,0.00000000,-28.69187270,5.49108819,-5.00000214
10.09000000,-3.35516835,-2.81217192,-3.79684368,-0.58844845,0.95867111,-0.03364860,7.55148413,0.05523141,0.00000000,-8.76993258,0.07974553,18.55074910,-3.20052403,0.00000000,-28.17346770,5.45911470,-5.00000214
10.09500000,-3.36630778,-2.88270266,-3.79089651,-0.58794558,0.95860963,-0.03322257,7.48855244,0.15771536,0.00000000,-8.70954597,0.09962975,18.41374851,-3.16953917,0.00000000,-27.71706175,5.48685735,-5.00000214
10.10000000,-3.34447702,-2.91334733,-3.82857106,-0.58716001,0.95866313,-0.03292428,7.37162514,0.20049385,0.00000000,-8.63867322,0.07052816,18.14603444,-3.09712968,0.00000000,-27.16250347,5.48650059,-5.00000214
10.10500000,-3.34752826,-2.86809791,-3.83591182,-0.58668150,0.95869733,-0.03255730,7.33143492,0.18079201,0.00000000,-8.60209787,0.07627237,17.92737558,-2.97165639,0.00000000,-26.54374363,5.38224708,-5.00000214
10.11000000,-3.36267959,-2.90734570,-3.82965708,-0.58616356,0.95857335,-0.03225799,7.28503151,0.24926051,0.00000000,-8.55169158,0.04653735,17.73398538,-2.91796996,0.00000000,-25.98429471,5.24601789,-5.00000214
10.11500000,-3.44223218,-3.02092936,-3.77522331,-0.58570669,0.95835676,-0.03190299,7.27279726,0.39192487,0.00000000,-8.47182709,0.13761537,17.63423181,-2.95322017,0.00000000,-25.47319038,5.11425079,-5.00000214
10.12000000,-3.39919179,-2.99300444,-3.74825129,-0.58512315,0.95846445,-0.03157710,7.15716055,0.38246676,0.00000000,-8.42512201,0.14159979,17.33117918,-2.83846940,0.00000000,-24.80991302,4.71602574,-5.00000214
10.12500000,-3.39286301,-2.92612614,-3.76529286,-0.58447424,0.95858797,-0.03146735,7.08833670,0.30840398,0.00000000,-8.38783954,0.17027634,17.02580040,-2.68797579,0.00000000,-24.09075069,4.27894040,-5.00000214
10.13000000,-3.43635961,-3.00745417,-3.79540326,-0.58389433,0.95835516,-0.03126495,7.07105609,0.41511286,0.00000000,-8.34957076,0.22193300,16.92514142,-2.74256032,0.00000000,-23.71525440,4.06575363,-5.00000214
10.13500000,-3.41544004,-2.98886434,-3.79636211,-0.58330421,0.95837659,-0.03105153,7.00227642,0.40167330,0.00000000,-8.34059833,0.22920583,16.65396835,-2.65416122,0.00000000,-23.12474877,3.63013583,-5.00000214
10.14000000,-3.42813455,-2.98746714,-3.78276283,-0.58277589,0.95834810,-0.03087609,6.95538529,0.41372592,0.00000000,-8.29135024,0.19895384,16.43561998,-2.60389973,0.00000000,-22.54469125,3.10858323,-5.00000214
10.14500000,-3.40474413,-2.95921749,-3.68762422,-0.58194771,0.95829512,-0.03089757,6.80020676,0.37560873,0.00000000,-8.16747214,0.29690288,14.94192157,-2.54619180,0.00000000,-20.06199939,2.84184673,-5.00000214
10.15000000,-3.44254179,-3.01410556,-3.70402071,-0.58173872,0.95824741,-0.03058671,6.84210778,0.46218972,0.00000000,-8.19352854,0.28956279,16.09796952,-2.56445508,0.00000000,-21.71041583,1.85043125,-5.00000214
10.15500000,-3.46736263,-3.14221569,-3.64985213,-0.58132042,0.95808073,-0.03028234,6.80300322,0.61577557,0.00000000,-8.16404195,0.32601238,15.86639614,-2.67785105,0.00000000,-21.20187409,1.33620732,-5.00000214
10.16000000,-3.47136391,-3.20749421,-3.63963817,-0.58082289,0.95802678,-0.02993130,6.75844492,0.72270234,0.00000000,-8.12992320,0.29215175,15.56673812,-2.74265464,0.00000000,-20.65016932,1.02093429,-5.00000214
10.16500000,-3.49255938,-3.26941275,-3.55452127,-0.58028138,0.95794279,-0.02998281,6.70356807,0.76769531,0.00000000,-8.09914558,0.38858732,15.46638708,-2.80432517,0.00000000,-20.46313213,0.91326714,-5.00000214
10.17000000,-3.47076255,-3.32293943,-3.51486091,-0.57971029,0.95802835,-0.02965815,6.61104546,0.84789115,0.00000000,-8.04829080,0.34739584,15.07165829,-2.85765983,0.00000000,-19.88114724,0.92866767,-5.00000214
10.17500000,-3.50678035,-3.32275920,-3.47214361,-0.57926532,0.95776911,-0.02957752,6.65522871,0.86380296,0.00000000,-8.12390128,0.48960064,14.88742308,-2.85270493,0.00000000,-19.55278386,1.04572791,-5.00000214
10.18000000,-3.46911971,-3.31008600,-3.43266027,-0.57864637,0.95780584,-0.02952554,6.55019945,0.84855189,0.00000000,-8.09428681,0.69216804,14.55743584,-2.82314017,0.00000000,-19.12086171,0.98297974,-5.00000214
10.18500000,-3.53245583,-3.33590918,-3.34628184,-0.57839554,0.95769025,-0.02952009,6.62509871,0.88981237,0.00000000,-8.14819115,0.55699722,14.53089177,-2.83568328,0.00000000,-19.04973862,1.08122979,-5.00000214
10.19000000,-3.53984712,-3.26448292,-3.33573387,-0.57807745,0.95785082,-0.02950117,6.63396231,0.81978919,0.00000000,-8.17367082,0.54964144,14.26145030,-2.79202455,0.00000000,-18.59707602,1.02527030,-5.00000214
10.19500000,-3.55063495,-3.36748156,-3.13468889,-0.57773130,0.95775427,-0.02932794,6.56393025,0.94367122,0.00000000,-8.13281031,0.57963649,14.41967810,-2.91384340,0.00000000,-18.91423896,1.44581794,-5.00000214
10.20000000,-3.54673136,-3.22040555,-3.07660863,-0.57714492,0.95807571,-0.02975867,6.53427280,0.75406556,0.00000000,-8.15055657,0.56210212,13.82353303,-2.69909285,0.00000000,-17.90411281,1.00851558,-5.00000214
10.20500000,-3.52423008,-3.19765843,-3.03623921,-0.57654021,0.95805840,-0.02981830,6.48570125,0.74215199,0.00000000,-8.16193581,0.60846007,13.55713034,-2.66133675,0.00000000,-17.47238206,0.93127227,-5.00000214
10.21000000,-3.55142930,-3.17745087,-2.80646871,-0.57656247,0.95812430,-0.03027097,6.53147337,0.70678389,0.00000000,-8.21373063,0.52790577,13.47384461,-2.65188459,0.00000000,-17.11909378,0.96331470,-5.00000214
10.21500000,-3.58285959,-3.08760196,-2.64517292,-0.57625297,0.95813348,-0.03058018,6.56631450,0.58955543,0.00000000,-8.28736169,0.61074475,13.38020990,-2.52303959,0.00000000,-16.89255117,0.96776302,-5.00000214
10.22000000,-3.58540122,-2.99342053,-2.71655083,-0.57586606,0.95826608,-0.03052713,6.67590326,0.49935083,0.00000000,-8.51404287,0.67500572,13.21249236,-2.37330671,0.00000000,-16.61353178,0.53085842,-5.00000214
10.22500000,-3.56666043,-2.93246452,-2.63375543,-0.57541629,0.95848672,-0.03080342,6.69542891,0.41964502,0.00000000,-8.66254497,0.79001422,13.13472543,-2.30451930,0.00000000,-16.52024479,0.27755729,-5.00000214
10.23000000,-3.56885222,-2.89685185,-2.60371745,-0.57502973,0.95857101,-0.03068931,6.77424914,0.39925197,0.00000000,-8.85119964,0.82917018,12.89924235,-2.26439272,0.00000000,-16.09420324,0.21562156,-5.00000214
10.23500000,-3.56250079,-2.81615471,-2.52096723,-0.57462640,0.95872432,-0.03094619,6.83090826,0.30171946,0.00000000,-9.03584254,0.93629663,12.75804440,-2.17279963,0.00000000,-15.84576771,0.08450192,-5.00000214
10.24000000,-3.56438881,-2.70277043,-2.48071212,-0.57420868,0.95882554,-0.03128311,6.95457883,0.16484282,0.00000000,-9.30921778,1.04866344,12.64648273,-2.04144686,0.00000000,-15.65633608,-0.04738749,-5.00000214
10.24500000,-3.54696676,-2.59998978,-2.36138550,-0.57375542,0.95897076,-0.03140731,7.00719851,0.07227094,0.00000000,-9.47185336,1.05373021,12.48123445,-1.91046286,0.00000000,-15.41135960,-0.13274669,-5.00000214
10.25000000,-3.56871861,-2.50837122,-2.28733228,-0.57341877,0.95899034,-0.03151445,7.16639540,-0.02901211,0.00000000,-9.78239036,1.21687513,12.35668688,-1.84320682,0.00000000,-15.11528366,0.07631404,-5.00000214
10.25500000,-3.56870453,-2.36844052,-2.25940657,-0.57309709,0.95916915,-0.03187046,7.34107128,-0.20405160,0.00000000,-10.15187002,1.36912853,12.26366853,-1.63997587,0.00000000,-15.03408956,-0.26104269,-5.00000214
10.26000000,-3.54925869,-2.34287923,-2.16347265,-0.57262100,0.95915704,-0.03198931,7.43699357,-0.22843578,0.00000000,-10.43090642,1.45358410,11.89458435,-1.61310435,0.00000000,-14.33248536,-0.18617324,-5.00000214
10.26500000,-3.55153371,-2.20217953,-2.15752341,-0.57232953,0.95932473,-0.03225332,7.62818956,-0.39580847,0.00000000,-10.80684433,1.55807927,11.90842696,-1.48205282,0.00000000,-14.39534398,-0.28895891,-5.00000214
10.27000000,-3.56878437,-2.03542809,-2.09560504,-0.57199494,0.95924945,-0.03258724,7.86331487,-0.59200886,0.00000000,-11.25664276,1.78132094,11.81207660,-1.27010094,0.00000000,-14.23632404,-0.26209536,-5.00000214
10.27500000,-3.55942888,-2.04638160,-2.02691368,-0.57159376,0.95907686,-0.03275773,8.03204947,-0.56989688,0.00000000,-11.62944647,1.79816250,11.51906518,-1.25527513,0.00000000,-13.74640344,-0.28165270,-5.00000214
10.28000000,-3.55902067,-1.76446816,-2.01339627,-0.57126165,0.95899503,-0.03339713,8.33054478,-0.92684384,0.00000000,-12.22859289,2.19512134,11.54174650,-0.88464775,0.00000000,-13.89052775,-0.50019876,-5.00000214
10.28500000,-3.54578804,-1.66849393,-1.97462767,-0.57091393,0.95893059,-0.03367597,8.55056630,-1.04290993,0.00000000,-12.70120935,2.27002681,11.46116035,-0.77747004,0.00000000,-13.76137300,-0.62588698,-5.00000214
10.29000000,-3.52931999,-1.65437379,-1.98846767,-0.57054958,0.95879987,-0.03376404,8.78249400,-1.05590993,0.00000000,-13.19182889,2.33468533,11.26182169,-0.73859931,0.00000000,-13.47804468,-0.53877864,-5.00000214
10.29500000,-3.53794372,-1.42938643,-1.97062856,-0.57026299,0.95864074,-0.03395954,9.11161775,-1.31289298,0.00000000,-13.82361520,2.82688524,11.13898374,-0.47542857,0.00000000,-13.26039769,-0.68341381,-5.00000214
10.30000000,-3.51548568,-1.34539053,-1.97747044,-0.56997032,0.95855903,-0.03425725,9.38138612,-1.41834771,0.00000000,-14.37789128,2.85108990,10.99824873,-0.38151820,0.00000000,-13.06281605,-0.74922960,-5.00000214
10.30500000,-3.51389679,-1.27388074,-1.94695335,-0.56963465,0.95839175,-0.03435571,9.66301216,-1.49759006,0.00000000,-14.95214279,3.10968775,10.82481032,-0.27272873,0.00000000,-12.76692767,-0.74875050,-5.00000214
10.31000000,-3.50026273,-1.07855508,-1.99460716,-0.56940964,0.95820678,-0.03463837,10.02178667,-1.72453262,0.00000000,-15.67631360,3.55871468,10.81436901,-0.07482023,0.00000000,-12.81672806,-0.73175595,-5.00000214
10.31500000,-3.48039149,-1.06395874,-1.95274241,-0.56908317,0.95802988,-0.03493805,10.26331140,-1.74502048,0.00000000,-16.15765757,3.42763970,10.74637201,-0.02720706,0.00000000,-12.75932221,-0.69725227,-5.00000214
10.32000000,-3.48097410,-0.97567723,-1.86893749,-0.56875240,0.95788861,-0.03508546,10.55515473,-1.82838585,0.00000000,-16.79106109,4.05537178,10.65497337,0.09820733,0.00000000,-12.59678823,-0.74576304,-5.00000214
10.32500000,-3.46172291,-0.73622501,-1.86606224,-0.56863414,0.95774269,-0.03554260,10.89558826,-2.14082702,0.00000000,-17.41803597,3.82985160,10.63075533,0.37416180,0.00000000,-12.59375615,-0.80816441,-5.00000214
10.33000000,-3.45100124,-0.58572061,-1.91360682,-0.56819357,0.95749442,-0.03582710,11.22305731,-2.32563945,0.00000000,-18.07715583,4.12983564,10.51429900,0.55514697,0.00000000,-12.46348841,-0.74694637,-5.00000214
10.33500000,-3.42473740,-0.54819259,-1.91730363,-0.56774634,0.95730353,-0.03596122,11.47422499,-2.36256411,0.00000000,-18.60302636,4.08369767,10.38655915,0.60512305,0.00000000,-12.32668382,-0.69871448,-5.00000214
10.34000000,-3.41296499,-0.34382915,-1.91337638,-0.56755231,0.95701717,-0.03624580,11.86383854,-2.59825666,0.00000000,-19.37705935,4.48366454,10.37865082,0.84520505,0.00000000,-12.35386700,-0.70776115,-5.00000214
10.34500000,-3.38867708,-0.18892429,-1.92705452,-0.56730738,0.95693399,-0.03620860,12.19407683,-2.75979418,0.00000000,-20.04120144,4.56393442,10.20770266,1.02121286,0.00000000,-12.09864218,-0.83721873,-5.00000214
10.35000000,-3.29496113,-0.19323452,-1.94483663,-0.56703973,0.95678068,-0.03653477,12.38300214,-2.76658367,0.00000000,-20.56710491,4.54770795,10.09894067,1.03440296,0.00000000,-12.11049747,-0.78761229,-5.00000214
10.35500000,-3.34546432,0.08712158,-1.94301056,-0.56694582,0.95642349,-0.03686929,12.88352745,-3.08757413,0.00000000,-21.38873795,4.85990587,10.19441821,1.34297061,0.00000000,-12.18965988,-0.75620948,-5.00000214
10.36000000,-3.25141725,0.08513139,-1.92237404,-0.56683546,0.95642862,-0.03696575,13.06438066,-3.08327013,0.00000000,-21.89315703,4.82790898,10.07655094,1.35012725,0.00000000,-12.17597306,-0.74071276,-5.00000214
10.36500000,-3.26198686,0.23743914,-1.96473513,-0.56666988,0.95605273,-0.03687167,13.49192294,-3.22273076,0.00000000,-22.63530235,5.03452087,9.99946308,1.52280849,0.00000000,-12.00706497,-0.78458713,-5.00000214
10.37000000,-3.26244886,0.42965530,-1.92645709,-0.56654289,0.95603076,-0.03724238,13.83991066,-3.44429313,0.00000000,-23.24958106,5.10310735,10.06303991,1.72898650,0.00000000,-12.11926449,-0.79079608,-5.00000214
10.37500000,-3.21651063,0.50512113,-2.00685534,-0.56629453,0.95588315,-0.03707141,14.15682089,-3.49463826,0.00000000,-23.90140270,5.15841943,9.86486072,1.80766615,0.00000000,-11.87742930,-0.82072331,-5.00000214
10.38000000,-3.23591284,0.68914524,-1.99296844,-0.56628888,0.95567941,-0.03763558,14.55022035,-3.72045732,0.00000000,-24.54869978,5.30818259,9.95147682,2.02739722,0.00000000,-11.99007044,-0.78941871,-5.00000214
10.38500000,-3.21823041,0.78826612,-2.05914429,-0.56606036,0.95544760,-0.03750271,14.87026028,-3.79956124,0.00000000,-25.15028978,5.58032314,9.79958867,2.14168086,0.00000000,-11.77015084,-0.81835196,-5.00000214
10.39000000,-3.13648756,0.81186647,-2.03114162,-0.56590935,0.95559891,-0.03788198,15.02975785,-3.84174825,0.00000000,-25.60003421,5.56471451,9.77766921,2.18168228,0.00000000,-11.90597309,-0.82192229,-5.00000214
10.39500000,-3.08145352,0.80203629,-2.08193048,-0.56574069,0.95560886,-0.03766406,15.24446005,-3.79961249,0.00000000,-26.08001937,5.63505145,9.63088059,2.16350049,0.00000000,-11.76796091,-0.79977669,-5.00000214
10.40000000,-3.10031182,1.05030618,-2.10893044,-0.56550077,0.95538170,-0.03802298,15.57963812,-4.06579860,0.00000000,-26.59473899,5.93874832,9.65401219,2.44437182,0.00000000,-11.78822454,-0.82306821,-5.00000214
10.40500000,-3.20757196,1.08790086,-2.19540390,-0.56482597,0.95526295,-0.03779861,15.89311535,-4.07140391,0.00000000,-26.98547908,6.12262224,9.49009516,2.50821203,0.00000000,-11.34777008,-0.93352994,-5.00000214
10.41000000,-3.17422719,1.18453345,-2.23597173,-0.56465547,0.95530767,-0.03791083,16.10209489,-4.16752284,0.00000000,-27.39137733,6.33355122,9.43995884,2.59148989,0.00000000,-11.32950234,-0.97091831,-5.00000214
10.41500000,-2.99642496,1.15172974,-2.19055956,-0.56495923,0.95534709,-0.03799655,16.11828016,-4.12320291,0.00000000,-27.69578485,6.44335136,9.32796960,2.57263829,0.00000000,-11.45501593,-0.92207366,-5.00000214
10.42000000,-3.02835057,1.23087137,-2.27987018,-0.56453330,0.95529274,-0.03774079,16.33725555,-4.16811976,0.00000000,-28.00703669,6.83124171,9.20227058,2.63421096,0.00000000,-11.19982954,-0.93898103,-5.00000214
10.42500000,-2.98078026,1.23085635,-2.22598662,-0.56449133,0.95545054,-0.03801436,16.39393643,-4.15910398,0.00000000,-28.14196820,6.90548807,9.17064019,2.66873219,0.00000000,-11.25362088,-0.95174199,-5.00000214
10.43000000,-2.98863215,1.19481610,-2.23383327,-0.56391799,0.95559929,-0.03781256,16.43360638,-4.07962110,0.00000000,-28.20221308,7.16296491,9.07700079,2.61007757,0.00000000,-11.13998894,-0.94786033,-5.00000214
10.43500000,-3.02152041,1.20753145,-2.25043785,-0.56338950,0.95551310,-0.03698646,16.52262158,-4.00240063,0.00000000,-28.30516341,7.61360847,8.95029301,2.58183024,0.00000000,-10.90270725,-0.97225190,-5.00000214
10.44000000,-2.98575377,1.18291497,-2.24393364,-0.56352858,0.95565835,-0.03751292,16.56108049,-3.97978419,0.00000000,-28.28873430,7.61899230,8.92663616,2.59864242,0.00000000,-10.91063043,-0.97371439,-5.00000214
10.44500000,-3.02915001,1.19050121,-2.25195689,-0.56293924,0.95563205,-0.03696111,16.62005468,-3.90524996,0.00000000,-28.28055407,7.95509910,8.82504463,2.56109358,0.00000000,-10.69729041,-1.00399231,-5.00000214
10.45000000,-3.01031051,1.19652050,-2.23738983,-0.56275252,0.95573142,-0.03696278,16.65415349,-3.87099807,0.00000000,-28.26240723,7.96230762,8.79308081,2.57220126,0.00000000,-10.70937987,-1.00614690,-5.00000214
10.45500000,-3.04322188,1.22341813,-2.27761517,-0.56233292,0.95586257,-0.03690119,16.67689750,-3.85958770,0.00000000,-28.15104438,8.33925056,8.70415493,2.56461005,0.00000000,-10.49250438,-1.11477206,-5.00000214
10.46000000,-3.01718194,1.23218945,-2.26606716,-0.56228007,0.95588940,-0.03684039,16.71794895,-3.81767401,0.00000000,-28.12568625,8.34496159,8.67188583,2.57728244,0.00000000,-10.50227772,-1.11734116,-5.00000214
10.46500000,-3.08016418,1.23195820,-2.29617700,-0.56197707,0.95597437,-0.03677659,16.73620392,-3.78903562,0.00000000,-27.91184534,8.56511655,8.62989679,2.57616138,0.00000000,-10.32716807,-1.16473240,-5.00000214
10.47000000,-3.06945975,1.21695614,-2.31095469,-0.56162769,0.95602419,-0.03666342,16.68810898,-3.71870258,0.00000000,-27.72953212,8.79486844,8.59657876,2.55375237,0.00000000,-10.33025619,-1.21940344,-5.00000214
10.47500000,-3.07500571,1.07741295,-2.39353090,-0.56096246,0.95596101,-0.03682883,16.62702275,-3.54286179,0.00000000,-27.51983086,8.84160221,8.41799173,2.42414205,0.00000000,-10.10424602,-1.10982815,-5.00000214
10.48000000,-3.07550693,1.08574166,-2.43067083,-0.56067856,0.95597465,-0.03669148,16.61673953,-3.50930498,0.00000000,-27.36572257,8.87725278,8.39944028,2.42208220,0.00000000,-10.10734914,-1.12099896,-5.00000214
10.48500000,-3.12691386,1.09814465,-2.40372263,-0.56020485,0.95600185,-0.03656138,16.56550676,-3.47691992,0.00000000,-27.06601085,8.88404609,8.33172983,2.42897011,0.00000000,-9.94929471,-1.10732649,-5.00000214
10.49000000,-3.06313817,1.05050637,-2.39562104,-0.55982094,0.95625030,-0.03639053,16.34723278,-3.37653705,0.00000000,-26.65179036,8.67041662,8.16166829,2.37451547,0.00000000,-9.80739733,-1.18305001,-5.00000214
10.49500000,-3.08135209,1.09849399,-2.42474710,-0.55959701,0.95610277,-0.03619258,16.35437347,-3.38053212,0.00000000,-26.49511525,8.65785024,8.14221878,2.41668124,0.00000000,-9.76816679,-1.15362681,-5.00000214
10.50000000,-3.05423507,1.05879210,-2.37687759,-0.55921496,0.95626976,-0.03600462,16.14377523,-3.29065688,0.00000000,-26.02309470,8.20303575,8.02848242,2.36426497,0.00000000,-9.64221549,-1.22943160,-5.00000214
10.50500000,-3.06396432,1.04233985,-2.35725267,-0.55879513,0.95633920,-0.03578332,16.01595492,-3.23365913,0.00000000,-25.67696340,7.89943746,7.96668337,2.33228590,0.00000000,-9.56907588,-1.22277472,-5.00000214
10.51000000,-3.05475503,1.13180105,-2.28358652,-0.55851673,0.95640429,-0.03566382,15.89220692,-3.29976681,0.00000000,-25.36146381,7.63080237,7.92907419,2.43715017,0.00000000,-9.54623080,-1.29120829,-5.00000214
10.51500000,-3.09012502,1.10587261,-2.30288622,-0.55812614,0.95635471,-0.03535940,15.78054587,-3.21116394,0.00000000,-24.91828283,7.00625635,7.89220967,2.37279475,0.00000000,-9.45691920,-1.26602559,-5.00000214
10.52000000,-3.09878158,1.12108076,-2.26761329,-0.55776240,0.95635663,-0.03535314,15.63686734,-3.20071251,0.00000000,-24.50622016,6.38511542,7.95784795,2.37391611,0.00000000,-9.60948652,-1.22017135,-5.00000214
10.52500000,-3.12553790,1.14510645,-2.32708629,-0.55731136,0.95635953,-0.03497726,15.54425389,-3.19489903,0.00000000,-24.20529893,5.94352132,7.88557135,2.36452766,0.00000000,-9.49495017,-1.20088465,-5.00000214
10.53000000,-3.11186954,1.12410224,-2.27629001,-0.55674839,0.95640234,-0.03466582,15.31241502,-3.14466071,0.00000000,-23.76432247,5.37142781,7.69504550,2.35064153,0.00000000,-9.22355694,-1.25953740,-5.00000214
10.53500000,-3.12736254,1.21177279,-2.29679658,-0.55654853,0.95642178,-0.03440460,15.22199642,-3.21253132,0.00000000,-23.48224264,4.99285647,7.76228096,2.40830312,0.00000000,-9.34307878,-1.23113723,-5.00000214
10.54000000,-3.17574229,1.25762248,-2.32351321,-0.55591226,0.95634508,-0.03420700,15.12048894,-3.24236207,0.00000000,-23.22092662,4.86371147,7.77813374,2.42332883,0.00000000,-9.37374488,-1.19778851,-5.00000214
10.54500000,-3.27171983,1.26094088,-2.29659484,-0.55546192,0.95608785,-0.03375161,15.07229605,-3.20147142,0.00000000,-22.99145684,4.83387100,7.66159357,2.43359241,0.00000000,-9.03403571,-1.15243280,-5.00000214
10.55000000,-3.22965190,1.31400919,-2.35250244,-0.55500488,0.95608967,-0.03361700,14.87365530,-3.26264585,0.00000000,-22.79001690,4.87339140,7.63770004,2.46353565,0.00000000,-9.15142929,-1.16776167,-5.00000214
10.55500000,-3.26317148,1.34835070,-2.38286039,-0.55467016,0.95602263,-0.03319114,14.77429550,-3.25053721,0.00000000,-22.60621020,4.87549027,7.62604803,2.47314310,0.00000000,-9.11290967,-1.15395390,-5.00000214
10.56000000,-3.27914794,1.38993531,-2.39326030,-0.55417388,0.95601330,-0.03293756,14.60100767,-3.26795226,0.00000000,-22.35832344,4.93083664,7.65875537,2.47614039,0.00000000,-9.17629485,-1.16050587,-5.00000214
10.56500000,-3.21153243,1.40536606,-2.42935274,-0.55369381,0.95621833,-0.03250507,14.32246105,-3.26165722,0.00000000,-22.08822183,5.01624730,7.43566968,2.49419925,0.00000000,-8.96009137,-1.28968537,-5.00000214
10.57000000,-3.24208459,1.42151660,-2.46500845,-0.55322504,0.95620099,-0.03211489,14.17049288,-3.24471864,0.00000000,-21.82698065,5.14936584,7.37842246,2.48531756,0.00000000,-8.86538468,-1.24683627,-5.00000214
10.57500000,-3.24797586,1.43964707,-2.49912619,-0.55280988,0.95626080,-0.03173844,13.98792625,-3.23971537,0.00000000,-21.52967111,5.08074506,7.30822089,2.48771719,0.00000000,-8.77868639,-1.24368979,-5.00000214
10.58000000,-3.23320678,1.53671257,-2.53072371,-0.55235390,0.95633514,-0.03141404,13.80233339,-3.34360211,0.00000000,-21.30176884,5.29379748,7.22437791,2.57437604,0.00000000,-8.71092218,-1.31711659,-5.00000214
10.58500000,-3.27255196,1.42221718,-2.56149883,-0.55193735,0.95639997,-0.03098587,13.61897082,-3.17904050,0.00000000,-20.92040844,5.16898416,7.20416556,2.42280066,0.00000000,-8.66440305,-1.25648365,-5.00000214
10.59000000,-3.28215452,1.25257919,-2.63116860,-0.55134620,0.95642058,-0.03045514,13.37971524,-2.96090690,0.00000000,-20.52740284,5.02725482,7.08160155,2.22903427,0.00000000,-8.51159385,-1.21709970,-5.00000214
10.59500000,-3.28902079,1.23461744,-2.69032267,-0.55095501,0.95657502,-0.03002898,13.20533272,-2.91152154,0.00000000,-20.24277255,5.05031580,6.98739950,2.18483642,0.00000000,-8.37052113,-1.26363471,-5.00000214
10.60000000,-3.29122299,1.19967582,-2.75636152,-0.55068003,0.95673527,-0.02950112,13.03740584,-2.82887256,0.00000000,-19.94429964,4.97497736,6.90735962,2.11481670,0.00000000,-8.25394560,-1.36176437,-5.00000214
10.60500000,-3.33186774,1.22801253,-2.85216241,-0.55039180,0.95692386,-0.02919014,12.96209583,-2.83314144,0.00000000,-19.73676657,4.96843321,6.93571488,2.10375629,0.00000000,-8.30151939,-1.34267504,-5.00000214
10.61000000,-3.33179863,1.06270817,-2.89720304,-0.55001442,0.95720763,-0.02864654,12.70703328,-2.61571027,0.00000000,-19.32435007,4.83075019,6.85963708,1.90939882,0.00000000,-8.21583497,-1.37298386,-5.00000214
10.61500000,-3.33419601,0.99905560,-2.93848182,-0.54959333,0.95749588,-0.02851575,12.47341702,-2.53155916,0.00000000,-18.91567714,4.66676343,6.82121991,1.82599976,0.00000000,-8.21397385,-1.39773551,-5.00000214
10.62000000,-3.35671739,0.83184490,-2.97535929,-0.54925999,0.95768016,-0.02783198,12.29453505,-2.29212591,0.00000000,-18.59297202,4.54241828,6.59545062,1.64615558,0.00000000,-7.82893361,-1.37348374,-5.00000214
10.62500000,-3.23284108,0.84581459,-3.02008085,-0.54882356,0.95813086,-0.02772211,11.92249425,-2.31518346,0.00000000,-18.19664374,4.56843006,6.37844804,1.65840263,0.00000000,-7.72271075,-1.31560524,-5.00000214
10.63000000,-3.37124899,0.61056256,-3.12145990,-0.54846227,0.95818972,-0.02698249,11.87458346,-1.99123584,0.00000000,-17.85091434,4.24093194,6.32267984,1.36482974,0.00000000,-7.40474583,-1.61131681,-5.00000214
10.63500000,-3.38203799,0.51751392,-3.21127019,-0.54817469,0.95843859,-0.02662361,11.69697176,-1.86311708,0.00000000,-17.49785892,3.96704695,6.43220770,1.22780063,0.00000000,-7.66043459,-1.60969489,-5.00000214
10.64000000,-3.41883346,0.48624835,-3.23802360,-0.54798552,0.95849294,-0.02609229,11.59860170,-1.79253966,0.00000000,-17.28314151,4.00073358,6.32981310,1.18502409,0.00000000,-7.43971741,-1.54716232,-5.00000214
10.64500000,-3.40315012,0.37604690,-3.35896107,-0.54760954,0.95888900,-0.02563702,11.36850541,-1.64496169,0.00000000,-16.90587232,3.72927531,6.15664579,1.02086710,0.00000000,-7.21269522,-1.68837578,-5.00000214
10.65000000,-3.41118213,0.22962485,-3.35692116,-0.54741357,0.95908756,-0.02515319,11.15321961,-1.45641579,0.00000000,-16.54117206,3.64135626,6.26779711,0.84248588,0.00000000,-7.46075344,-1.65709555,-5.00000214
10.65500000,-3.43323065,0.19707710,-3.42229013,-0.54723488,0.95925622,-0.02478243,11.03921433,-1.39370896,0.00000000,-16.30867035,3.56109699,6.27778673,0.78030710,0.00000000,-7.49541136,-1.60969644,-5.00000214
10.66000000,-3.43526514,0.13304813,-3.48102266,-0.54702539,0.95936841,-0.02429541,10.86399024,-1.28974276,0.00000000,-15.99514022,3.44963939,6.11756445,0.67892750,0.00000000,-7.21260758,-1.72936422,-5.00000214
10.66500000,-3.40442783,0.09845152,-3.53844438,-0.54660988,0.95960467,-0.02380587,10.62755345,-1.23203120,0.00000000,-15.66856813,3.49607300,5.89210772,0.61657018,0.00000000,-6.92349285,-1.66943201,-5.00000214
10.67000000,-3.45132091,-0.05003386,-3.48009882,-0.54654517,0.95979335,-0.02328837,10.48088748,-1.03718219,0.00000000,-15.34576382,3.22120174,5.92914095,0.45036974,0.00000000,-6.92621851,-1.81116295,-5.00000214
10.67500000,-3.44668436,-0.10743096,-3.51099113,-0.54623358,0.95995411,-0.02287093,10.30019808,-0.94766182,0.00000000,-15.04718529,3.05477871,5.83250572,0.36441049,0.00000000,-6.79717752,-1.89708993,-5.00000214
10.68000000,-3.45622333,-0.21445345,-3.55743463,-0.54600675,0.96018308,-0.02235364,10.11775562,-0.80045882,0.00000000,-14.71018217,2.91067350,5.70077219,0.21070866,0.00000000,-6.56073152,-2.04276254,-5.00000214
10.68500000,-3.47415904,-0.22035292,-3.59260601,-0.54591215,0.96023996,-0.02198399,10.02433919,-0.77622073,0.00000000,-14.51854535,2.92726801,5.86471739,0.17023391,0.00000000,-6.87249604,-1.93166944,-5.00000214
10.69000000,-3.48061410,-0.35727199,-3.62118999,-0.54569506,0.96033041,-0.02133558,9.86579629,-0.58703223,0.00000000,-14.25300485,2.83400889,5.80873977,0.00281624,0.00000000,-6.82882185,-1.82764277,-5.00000214
10.69500000,-3.48307047,-0.34963631,-3.60003115,-0.54559327,0.96054513,-0.02109440,9.71572491,-0.58876209,0.00000000,-13.98762876,2.74019695,5.90645704,-0.01875322,0.00000000,-7.03468296,-1.81445351,-5.00000214
10.70000000,-3.49281668,-0.34891892,-3.60955764,-0.54553395,0.96064445,-0.02063545,9.63021935,-0.55728380,0.00000000,-13.81361319,2.63971302,5.89314806,-0.04773678,0.00000000,-7.00667257,-1.83314094,-5.00000214
10.70500000,-3.56967061,-0.44593346,-3.66768035,-0.54539699,0.96047860,-0.01986973,9.60930168,-0.40233611,0.00000000,-13.65476292,2.68225268,5.81978228,-0.18192120,0.00000000,-6.74948313,-1.78264725,-5.00000214
10.71000000,-3.48861284,-0.50602604,-3.66471323,-0.54513694,0.96067297,-0.01943189,9.35868891,-0.30992642,0.00000000,-13.38801920,2.60906974,5.64704905,-0.27461583,0.00000000,-6.61278311,-1.88779845,-5.00000214
10.71500000,-3.47982460,-0.48111985,-3.64889729,-0.54508129,0.96088116,-0.01907215,9.23126828,-0.31806702,0.00000000,-13.17604094,2.48285174,5.67621257,-0.28459811,0.00000000,-6.69767255,-1.89796910,-5.00000214
10.72000000,-3.49141848,-0.58898205,-3.68167566,-0.54496009,0.96089586,-0.01845027,9.10784606,-0.16242182,0.00000000,-12.95302377,2.39058140,5.58453279,-0.42356277,0.00000000,-6.54290206,-1.92408189,-5.00000214
10.72500000,-3.49264336,-0.55418809,-3.67635110,-0.54479971,0.96109106,-0.01820442,8.98111443,-0.19003321,0.00000000,-12.73167087,2.30629798,5.63282991,-0.41579697,0.00000000,-6.67224635,-1.91576209,-5.00000214
10.73000000,-3.49152717,-0.63937994,-3.73121795,-0.54475150,0.96103045,-0.01760273,8.89911773,-0.05254356,0.00000000,-12.59006768,2.25529237,5.55281190,-0.54031496,0.00000000,-6.53344688,-1.95629592,-5.00000214
10.73500000,-3.46452609,-0.65715654,-3.75901252,-0.54451372,0.96111866,-0.01710881,8.74508797,-0.00501120,0.00000000,-12.39389144,2.31893964,5.41924682,-0.58932028,0.00000000,-6.36767860,-1.94486946,-5.00000214
10.74000000,-3.46562877,-0.75054758,-3.77612038,-0.54449323,0.96111327,-0.01652287,8.65756038,0.14743754,0.00000000,-12.22825242,2.11379021,5.35982085,-0.71337902,0.00000000,-6.28163984,-1.99880289,-5.00000214
10.74500000,-3.46820638,-0.70559566,-3.83445304,-0.54448748,0.96131377,-0.01604907,8.60910317,0.12405813,0.00000000,-12.13275392,2.16393006,5.33757705,-0.73064627,0.00000000,-6.23561626,-2.08799352,-5.00000214
10.75000000,-3.45936551,-0.72322642,-3.81940044,-0.54429107,0.96145838,-0.01549399,8.48752593,0.18759193,0.00000000,-11.96624764,2.17173124,5.20947776,-0.78118340,0.00000000,-6.05706307,-2.14823376,-5.00000214
10.75500000,-3.43876263,-0.71753387,-3.80417743,-0.54413178,0.96148886,-0.01522336,8.35878058,0.19275179,0.00000000,-11.78365019,2.19098854,5.04043313,-0.76519877,0.00000000,-5.82966847,-2.09753518,-5.00000214
10.76000000,-3.52825741,-0.69099645,-3.88695805,-0.54335509,0.96123255,-0.01490444,8.36445450,0.18039716,0.00000000,-11.69918714,2.16832090,5.10081719,-0.78311123,0.00000000,-5.85613602,-2.10702304,-5.00000214
10.76500000,-3.54559839,-0.74909656,-3.86671486,-0.54341648,0.96133892,-0.01453550,8.29104756,0.26584870,0.00000000,-11.52636942,2.00739112,5.15824920,-0.87492432,0.00000000,-5.93193088,-2.07443302,-5.00000214
10.77000000,-3.50754028,-0.94277679,-4.00563536,-0.54293751,0.96116892,-0.01490518,8.13895206,0.43557034,0.00000000,-11.37492427,1.95352157,4.91292286,-1.03551033,0.00000000,-5.67995606,-2.00069738,-5.00000214
10.77500000,-3.49467872,-0.97237132,-4.00164855,-0.54283587,0.96128656,-0.01468585,8.02531903,0.47503139,0.00000000,-11.21081735,1.95566578,4.90131114,-1.09796381,0.00000000,-5.68909126,-2.03511877,-5.00000214
10.78000000,-3.53703541,-1.00696135,-4.04461724,-0.54278910,0.96122000,-0.01410511,8.02751050,0.55703092,0.00000000,-11.13433621,1.89954641,4.83340125,-1.16111769,0.00000000,-5.51091270,-1.96091069,-5.00000214
10.78500000,-3.50817607,-0.95134152,-4.03456374,-0.54359008,0.96153797,-0.01288012,8.04362942,0.59426718,0.00000000,-11.12331719,1.89593486,4.84947174,-1.18675870,0.00000000,-5.50412180,-1.96365579,-5.00000214
10.79000000,-3.51596578,-0.90868637,-3.94367217,-0.54357156,0.96183907,-0.01250902,7.94442042,0.57027126,0.00000000,-10.92716205,1.64661301,4.93582469,-1.18468497,0.00000000,-5.61544979,-2.25037380,-5.00000214
10.79500000,-3.56396936,-0.92185433,-3.99048739,-0.54356059,0.96177011,-0.01200254,7.94084044,0.61901628,0.00000000,-10.83066864,1.67492371,4.87649035,-1.22371241,0.00000000,-5.44368709,-2.21904902,-5.00000214
10.80000000,-3.54158876,-0.99759987,-4.05978015,-0.54248593,0.96140893,-0.01271543,7.74908287,0.63197317,0.00000000,-10.65665772,1.78271141,4.62437678,-1.23894533,0.00000000,-5.18347034,-2.06234030,-5.00000214
10.80500000,-3.55019261,-0.96392859,-4.04991057,-0.54235495,0.96141674,-0.01193360,7.73477747,0.65173112,0.00000000,-10.65393122,1.78137549,4.61877574,-1.25203214,0.00000000,-5.18212092,-2.06517224,-5.00000214
10.81000000,-3.58326576,-1.00055091,-3.94087557,-0.54178755,0.96158777,-0.01126897,7.48290315,0.74085361,0.00000000,-10.18076172,1.51089895,4.51262445,-1.33886692,0.00000000,-4.94550775,-2.28573118,-5.00000214
10.81500000,-3.58842577,-0.96964053,-3.93472831,-0.54173811,0.96163833,-0.01061281,7.47421787,0.75524279,0.00000000,-10.17625816,1.51302472,4.51114918,-1.35113929,0.00000000,-4.94575501,-2.28593748,-5.00000214
10.82000000,-3.62584958,-0.87269295,-3.80091300,-0.54048342,0.96142680,-0.01046143,7.19572652,0.65116735,0.00000000,-9.74956836,1.60944213,4.35528766,-1.25068450,0.00000000,-4.69415307,-2.30135350,-5.00000214
10.82500000,-3.66463508,-0.82527503,-3.70668601,-0.53918666,0.96094721,-0.01023363,6.97798935,0.60558717,0.00000000,-9.45847225,1.79600413,4.16366501,-1.18478442,0.00000000,-4.42167893,-2.17169558,-5.00000214
10.83000000,-3.70338340,-0.78093313,-3.62013179,-0.53796531,0.96066033,-0.00993867,6.77689862,0.56743093,0.00000000,-9.19482606,1.89557759,4.05713323,-1.15750844,0.00000000,-4.26055368,-2.12214462,-5.00000214
10.83500000,-3.68664596,-0.73079363,-3.54520743,-0.53662656,0.96038858,-0.00973378,6.47138259,0.51332658,0.00000000,-8.82985353,1.97099350,3.84735859,-1.10928310,0.00000000,-4.03857055,-2.13412030,-5.00000214
10.84000000,-3.70533868,-0.68238889,-3.46209452,-0.53537121,0.96010128,-0.00952972,6.22230826,0.46357116,0.00000000,-8.49924507,2.03968760,3.70298590,-1.06795289,0.00000000,-3.85487242,-2.11544375,-5.00000214
10.84500000,-3.71785357,-0.63364036,-3.39850031,-0.53417288,0.95982692,-0.00921551,5.98756221,0.42030948,0.00000000,-8.20535740,2.17559526,3.53838363,-1.02448166,0.00000000,-3.65786719,-2.11752602,-5.00000214
10.85000000,-3.72322557,-0.64228809,-3.38699844,-0.53401364,0.95981916,-0.00894969,5.90759392,0.44520386,0.00000000,-8.07109753,2.12539080,3.49069551,-1.04633027,0.00000000,-3.58354932,-2.13797580,-5.00000214
10.85500000,-3.76413403,-1.50507736,-3.85884983,-0.52837982,0.95852501,-0.00853355,5.04209470,1.37040994,0.00000000,-7.07413397,2.02264798,2.45349417,-1.99326429,0.00000000,-2.54251156,-1.43328138,-5.00000214
10.86000000,-3.79931099,-2.21134260,-4.42216983,-0.52263477,0.95689883,-0.00814678,4.31641066,2.10731734,0.00000000,-6.42167603,2.49505923,1.27783286,-2.75144408,0.00000000,-1.30909488,-0.66375370,-5.00000214
10.86500000,-3.80772399,-3.11464202,-4.87113707,-0.51653301,0.95550906,-0.00779816,3.20503246,3.04292748,0.00000000,-5.11726920,2.07357679,0.02571911,-3.71745847,0.00000000,-0.03798448,-0.20291231,-5.00000214
10.87000000,-3.80001156,-3.09713635,-4.90759067,-0.51661868,0.95555712,-0.00738036,3.20040221,3.05546764,0.00000000,-5.11930844,2.12731315,0.00210994,-3.74656801,0.00000000,0.02266821,-0.38485582,-5.00000214
10.87500000,-3.80843136,-3.10411928,-4.86780408,-0.51679449,0.95554211,-0.00700849,3.14315347,3.09066245,0.00000000,-4.96349866,1.92614614,0.05304441,-3.75561893,0.00000000,-0.05943957,-0.20794521,-5.00000214
10.88000000,-3.68047011,-0.95471247,-3.60229288,-0.53817849,0.96097490,-0.00644151,6.15772631,0.96060050,0.00000000,-8.09966154,1.50990436,3.88773657,-1.55814904,0.00000000,-3.98636546,-2.31546106,-5.00000214
10.88500000,-3.60724683,-1.19308767,-3.91493280,-0.54225380,0.96210268,-0.00587225,6.68032319,1.27859291,0.00000000,-8.66694473,1.00507172,4.30233161,-1.88399427,0.00000000,-4.49776120,-2.54265135,-5.00000214
10.89000000,-3.58850624,-1.16802696,-3.91942717,-0.54283206,0.96231952,-0.00526803,6.69283731,1.29955705,0.00000000,-8.65940225,1.00174100,4.31610905,-1.89674479,0.00000000,-4.49518197,-2.54362687,-5.00000214
10.89500000,-3.60749555,-1.14750448,-3.91356324,-0.54234231,0.96207908,-0.00475094,6.66992874,1.30876724,0.00000000,-8.66203281,1.00002332,4.30278407,-1.90931342,0.00000000,-4.50414391,-2.54435561,-5.00000214
10.90000000,-3.60314472,-1.26353543,-3.79643549,-0.54210644,0.96211319,-0.00446946,6.44271656,1.45282117,0.00000000,-8.28194850,0.82051857,4.30298444,-2.02824921,0.00000000,-4.53514450,-2.47399814,-5.00000214
10.90500000,-3.59663795,-1.28585616,-3.82041110,-0.54215112,0.96215039,-0.00416306,6.37960540,1.50254107,0.00000000,-8.13971913,0.61987629,4.30149372,-2.10336662,0.00000000,-4.51282772,-2.58615222,-5.00000214
10.91000000,-3.60839910,-1.27705928,-3.86838209,-0.54219190,0.96217042,-0.00374020,6.36394627,1.50772059,0.00000000,-8.09601308,0.66119293,4.30928069,-2.11828459,0.00000000,-4.52196920,-2.56441856,-5.00000214
10.91500000,-3.60960442,-1.26469102,-3.86912993,-0.54222210,0.96219809,-0.00338102,6.35583762,1.51353386,0.00000000,-8.09607094,0.66379514,4.31131887,-2.12513642,0.00000000,-4.52194850,-2.56315141,-5.00000214
10.92000000,-3.60968785,-1.25475331,-3.86143015,-0.54236507,0.96224415,-0.00297394,6.35815678,1.53221235,0.00000000,-8.08945292,0.66601372,4.30510415,-2.11443373,0.00000000,-4.52275542,-2.56218347,-5.00000214
10.92500000,-3.59309399,-1.50359055,-3.93620637,-0.54202440,0.96200896,-0.00328870,6.21792965,1.76381386,0.00000000,-7.92747298,0.79029563,4.18375425,-2.35506954,0.00000000,-4.42025702,-2.40861494,-5.00000214
10.93000000,-3.60271482,-1.37620880,-3.78477264,-0.54209029,0.96234796,-0.00260653,6.12074731,1.67314793,0.00000000,-7.72215174,0.68929193,4.32376276,-2.28461197,0.00000000,-4.59711781,-2.50957919,-5.00000214
10.93500000,-3.60246586,-1.36289821,-3.78193276,-0.54220645,0.96232506,-0.00220934,6.12557218,1.68805091,0.00000000,-7.71864230,0.68864715,4.31750407,-2.28069367,0.00000000,-4.59378443,-2.50825154,-5.00000214
10.94000000,-3.67740495,-1.12784867,-3.39454882,-0.54375743,0.96283204,-0.00230591,6.24718946,1.43792747,0.00000000,-7.62302576,0.51740055,4.69659225,-2.05182594,0.00000000,-4.76079392,-2.82885290,-5.00000214
10.94500000,-3.73719289,-1.04150085,-3.13384622,-0.54525366,0.96305119,-0.00226103,6.41915478,1.36096281,0.00000000,-7.64994382,0.27862255,4.89426685,-1.95843030,0.00000000,-4.70820154,-3.14769451,-5.00000214
10.95000000,-3.69139218,-0.99689709,-3.20682204,-0.54474421,0.96304704,-0.00201534,6.24949166,1.32040448,0.00000000,-7.47548309,0.38693971,4.69551051,-1.91443008,0.00000000,-4.50111310,-3.10615105,-5.00000214
10.95500000,-3.69992017,-0.95696336,-3.19776861,-0.54461512,0.96314312,-0.00108333,6.24250893,1.34033318,0.00000000,-7.48274125,0.38325819,4.69231105,-1.93896378,0.00000000,-4.50614886,-3.11271273,-5.00000214
10.96000000,-3.73209664,-0.91836400,-3.20434184,-0.54451469,0.96320477,-0.00081495,6.25782686,1.31949968,0.00000000,-7.44530623,0.29029303,4.79452246,-1.92676705,0.00000000,-4.63183331,-3.29812664,-5.00000214
10.96500000,-3.70653201,-0.89356788,-3.20815821,-0.54427499,0.96315064,-0.00069055,6.14451508,1.29454401,0.00000000,-7.31586680,0.35896687,4.68731309,-1.89771480,0.00000000,-4.51946705,-3.24091623,-5.00000214
10.97000000,-3.72503857,-0.99073307,-3.26941070,-0.54434685,0.96312433,-0.00027342,6.18544575,1.42632753,0.00000000,-7.36593348,0.32214107,4.76187503,-2.03240552,0.00000000,-4.65315217,-3.20659729,-5.00000214
10.97500000,-3.71547464,-1.04030758,-3.30625512,-0.54413547,0.96302080,0.00001544,6.12616770,1.50982582,0.00000000,-7.28404640,0.24106378,4.74303178,-2.10468380,0.00000000,-4.68808678,-3.11701465,-5.00000214
10.98000000,-3.71943604,-1.03376020,-3.31344282,-0.54417180,0.96297270,0.00051337,6.12141119,1.52996746,0.00000000,-7.27819594,0.24273928,4.73734422,-2.11219080,0.00000000,-4.67816580,-3.11048611,-5.00000214
10.98500000,-3.69597376,-1.02973591,-3.37142119,-0.54367761,0.96303473,0.00065133,5.98906554,1.52814736,0.00000000,-7.12405009,0.31064427,4.61210467,-2.12547814,0.00000000,-4.55749096,-3.04601782,-5.00000214
10.99000000,-3.69557559,-1.14681353,-3.42397692,-0.54345727,0.96287618,0.00102730,5.94093178,1.67288965,0.00000000,-7.09068689,0.34834469,4.55384206,-2.25387613,0.00000000,-4.53339369,-2.96356495,-5.00000214
10.99500000,-3.66969414,-1.16053586,-3.48826373,-0.54337120,0.96281158,0.00123143,5.90613396,1.69603856,0.00000000,-7.07134477,0.34298885,4.55988439,-2.28609179,0.00000000,-4.61579706,-2.93047109,-5.00000214
11.00000000,-3.67641462,-1.18612913,-3.51267589,-0.54320523,0.96284200,0.00134002,5.85724946,1.73607064,0.00000000,-6.97496121,0.21659575,4.60489067,-2.34982510,0.00000000,-4.73887522,-2.78565557,-5.00000214
11.00500000,-3.68556750,-1.17746336,-3.52103283,-0.54295639,0.96277193,0.00172351,5.84414341,1.74757571,0.00000000,-6.97800925,0.21837406,4.59523696,-2.34680343,0.00000000,-4.74382813,-2.78468963,-5.00000214
11.01000000,-3.66315874,-1.25596155,-3.58167263,-0.54275097,0.96283869,0.00211185,5.74377289,1.86058931,0.00000000,-6.84416039,0.18115940,4.55522600,-2.47667203,0.00000000,-4.75682876,-2.76285627,-5.00000214
11.01500000,-3.64826617,-1.31204993,-3.65132238,-0.54233602,0.96273314,0.00231389,5.66822473,1.92257825,0.00000000,-6.80102029,0.28179555,4.46925865,-2.54229903,0.00000000,-4.72528988,-2.65625252,-5.00000214
11.02000000,-3.64598851,-1.32197630,-3.64292151,-0.54228844,0.96273287,0.00260533,5.63987049,1.95610415,0.00000000,-6.75907210,0.23097651,4.45249935,-2.57061042,0.00000000,-4.70667283,-2.64925316,-5.00000214
11.02500000,-3.66325013,-1.34557843,-3.65299428,-0.54205071,0.96263153,0.00246438,5.63159284,1.95865481,0.00000000,-6.75611757,0.23367192,4.43580063,-2.55497677,0.00000000,-4.70632904,-2.64447994,-5.00000214
11.03000000,-3.65222280,-1.31492318,-3.63749478,-0.54241605,0.96272655,0.00314361,5.63650467,1.97592989,0.00000000,-6.74841710,0.23583110,4.44713082,-2.56956326,0.00000000,-4.69643605,-2.64022433,-5.00000214
11.03500000,-3.65685268,-1.28791479,-3.55951579,-0.54240764,0.96279252,0.00335606,5.56767226,1.95940029,0.00000000,-6.62270678,0.23768984,4.50407766,-2.58129156,0.00000000,-4.74178396,-2.69022436,-5.00000214
11.04000000,-3.67621734,-1.42651963,-3.67521918,-0.54170639,0.96249323,0.00314729,5.51403454,2.08677639,0.00000000,-6.56301377,0.23703075,4.38687588,-2.71312748,0.00000000,-4.61832418,-2.53106719,-5.00000214
11.04500000,-3.65163019,-1.29102373,-3.51306183,-0.54237342,0.96266825,0.00384380,5.51957709,1.99187029,0.00000000,-6.55363998,0.21622340,4.55208205,-2.61870751,0.00000000,-4.83197303,-2.61770081,-5.00000214
11.05000000,-3.68277369,-1.39924823,-3.62615830,-0.54184625,0.96251107,0.00368107,5.49776129,2.09703123,0.00000000,-6.49257744,0.20755460,4.45082091,-2.71835857,0.00000000,-4.70318979,-2.52433639,-5.00000214
11.05500000,-3.68535051,-1.39621751,-3.61546291,-0.54190869,0.96253241,0.00405237,5.49187202,2.10968214,0.00000000,-6.49546147,0.20702610,4.44311004,-2.71172332,0.00000000,-4.70109539,-2.52240148,-5.00000214
11.06000000,-3.66913276,-1.47714253,-3.60548080,-0.54184978,0.96257928,0.00424744,5.41600951,2.20541167,0.00000000,-6.39794064,0.10931741,4.44496656,-2.84461288,0.00000000,-4.71834322,-2.53024518,-5.00000214
11.06500000,-3.65063595,-1.43176330,-3.45406234,-0.54234805,0.96271506,0.00490721,5.42170519,2.20691868,0.00000000,-6.40486583,0.12400482,4.48802201,-2.80744776,0.00000000,-4.72954475,-2.53700118,-5.00000214
11.07000000,-3.65990807,-1.37720672,-3.45519552,-0.54238033,0.96270634,0.00509093,5.44114866,2.15487260,0.00000000,-6.41927269,0.20732697,4.58396946,-2.78632038,0.00000000,-4.87662556,-2.54093026,-5.00000214
11.07500000,-3.66472789,-1.38940509,-3.39852007,-0.54243820,0.96266614,0.00525212,5.43858999,2.16992217,0.00000000,-6.42307849,0.22438492,4.58005608,-2.77996070,0.00000000,-4.85266908,-2.53753212,-5.00000214
11.08000000,-3.65193598,-1.41247662,-3.38222488,-0.54228421,0.96263375,0.00552577,5.39908109,2.22332239,0.00000000,-6.38214134,0.22152900,4.52159507,-2.82395799,0.00000000,-4.77563829,-2.61867089,-5.00000214
11.08500000,-3.66072466,-1.37469041,-3.45240792,-0.54224711,0.96273707,0.00558784,5.42295989,2.18167333,0.00000000,-6.39042151,0.19003680,4.54075412,-2.83054854,0.00000000,-4.81050723,-2.65045142,-5.00000214
11.09000000,-3.66063753,-1.36775184,-3.44250130,-0.54232988,0.96275752,0.00587392,5.42635275,2.19404908,0.00000000,-6.38969966,0.19010438,4.53585552,-2.81910831,0.00000000,-4.80979479,-2.64829598,-5.00000214
11.09500000,-3.65878853,-1.38846167,-3.42295134,-0.54224385,0.96271888,0.00600523,5.41240170,2.22177792,0.00000000,-6.38540694,0.17203155,4.53695270,-2.87318222,0.00000000,-4.78681933,-2.68621660,-5.00000214
11.10000000,-3.65954745,-1.38277110,-3.41012431,-0.54228017,0.96264181,0.00627869,5.41873894,2.24231383,0.00000000,-6.38317086,0.17076947,4.53208892,-2.85142638,0.00000000,-4.78624821,-2.68177542,-5.00000214
11.10500000,-3.66690815,-1.41358389,-3.39352655,-0.54222175,0.96261739,0.00641534,5.40804987,2.27616800,0.00000000,-6.36677783,0.12916230,4.55827083,-2.91524063,0.00000000,-4.81100379,-2.65348533,-5.00000214
11.11000000,-3.66625637,-1.40426101,-3.38222169,-0.54231850,0.96254413,0.00674502,5.41277646,2.29204473,0.00000000,-6.36578400,0.13001671,4.55509273,-2.91105469,0.00000000,-4.80385656,-2.64959004,-5.00000214
11.11500000,-3.66966699,-1.44315494,-3.32010060,-0.54230455,0.96255785,0.00686138,5.39821603,2.35072664,0.00000000,-6.32381238,-0.00202304,4.60462553,-3.02638572,0.00000000,-4.84401674,-2.36561739,-5.00000214
11.12000000,-3.67860277,-1.45608104,-3.31472222,-0.54226615,0.96253212,0.00707389,5.39910077,2.37112297,0.00000000,-6.32463883,-0.00042268,4.57944260,-2.97696202,0.00000000,-4.85776153,-2.36998559,-5.00000214
11.12500000,-3.66719293,-1.43293781,-3.31835875,-0.54227884,0.96259206,0.00721567,5.40031554,2.35252851,0.00000000,-6.35197039,0.03630218,4.58386196,-2.98601634,0.00000000,-4.84947830,-2.53933402,-5.00000214
11.13000000,-3.67037595,-1.43007405,-3.30871582,-0.54226639,0.96255589,0.00746391,5.40337877,2.36727799,0.00000000,-6.35179112,0.03798549,4.57435352,-2.97108507,0.00000000,-4.84957293,-2.53760715,-5.00000214
11.13500000,-3.64611910,-1.46535307,-3.32206181,-0.54209891,0.96247666,0.00771517,5.36767607,2.42373993,0.00000000,-6.36036945,0.12275368,4.42096685,-3.03396146,0.00000000,-4.60884876,-2.56870923,-5.00000214
11.14000000,-3.65349333,-1.40139465,-3.19425444,-0.54182215,0.96251571,0.00738594,5.33057730,2.33503645,0.00000000,-6.32161010,0.13753758,4.53412460,-2.95459863,0.00000000,-4.79317974,-2.62666838,-5.00000214
11.14500000,-3.64954450,-1.39196829,-3.19197141,-0.54189573,0.96262784,0.00763964,5.33399151,2.33683632,0.00000000,-6.32195276,0.13662467,4.53745318,-2.95842333,0.00000000,-4.79753358,-2.62600497,-5.00000214
11.15000000,-3.67897665,-1.42438416,-3.09447883,-0.54190851,0.96243434,0.00787129,5.35828653,2.39807540,0.00000000,-6.31659542,0.15005771,4.44393194,-2.97066962,0.00000000,-4.55053276,-2.58388475,-5.00000214
11.15500000,-3.66058050,-1.48796094,-3.22489548,-0.54204752,0.96262190,0.00825520,5.37723700,2.49314418,0.00000000,-6.34277106,0.00234299,4.34144750,-3.08446652,0.00000000,-4.40050427,-2.73629235,-5.00000214
11.16000000,-3.66656182,-1.48842215,-3.17400432,-0.54199742,0.96260574,0.00842497,5.37268794,2.49700052,0.00000000,-6.35296205,0.01167566,4.33703773,-3.07084775,0.00000000,-4.38881436,-2.72847428,-5.00000214
11.16500000,-3.66750800,-1.48846173,-3.14539642,-0.54213877,0.96261886,0.00862948,5.40910919,2.51164732,0.00000000,-6.40642639,0.02520211,4.41994972,-3.08428659,0.00000000,-4.52092910,-2.69751215,-5.00000214
11.17000000,-3.63343388,-1.37554355,-2.97359412,-0.54139604,0.96244628,0.00816597,5.25564604,2.35979083,0.00000000,-6.30431985,0.17896767,4.36615214,-2.94468206,0.00000000,-4.50516238,-2.69729931,-5.00000214
11.17500000,-3.63475140,-1.40929192,-2.97032361,-0.54141076,0.96244684,0.00835334,5.25910401,2.40849583,0.00000000,-6.31376706,0.17108218,4.36919771,-2.99160113,0.00000000,-4.50446502,-2.69720634,-5.00000214
11.18000000,-3.63249301,-1.34624742,-2.93634437,-0.54133281,0.96242688,0.00836962,5.27001127,2.33835423,0.00000000,-6.35128388,0.23490789,4.38595270,-2.92587709,0.00000000,-4.52786142,-2.71896764,-5.00000214
11.18500000,-3.61913029,-1.34224021,-2.93535296,-0.54165103,0.96248238,0.00851615,5.27949945,2.34034927,0.00000000,-6.34970905,0.23457423,4.38899776,-2.92740158,0.00000000,-4.52698598,-2.71748053,-5.00000214
11.19000000,-3.62578452,-1.34345874,-2.93661437,-0.54169416,0.96253509,0.00878202,5.28594814,2.35413306,0.00000000,-6.35472634,0.23283390,4.38165651,-2.92096448,0.00000000,-4.52854596,-2.71631366,-5.00000214
11.19500000,-3.65131366,-1.42866980,-2.98247440,-0.54171554,0.96243306,0.00898743,5.36173679,2.47132494,0.00000000,-6.42639580,0.14273660,4.38009367,-3.03313559,0.00000000,-4.48588567,-2.70366607,-5.00000214
11.20000000,-3.63595618,-1.40063981,-2.93785373,-0.54162229,0.96246028,0.00889911,5.32946759,2.43211551,0.00000000,-6.41710761,0.13714776,4.39197797,-3.01740220,0.00000000,-4.51484086,-2.72999957,-5.00000214
11.20500000,-3.64679458,-1.38387128,-2.85625345,-0.54141891,0.96237367,0.00902134,5.32037558,2.42828713,0.00000000,-6.41326079,0.16671599,4.38756275,-2.97907020,0.00000000,-4.49716304,-2.69668844,-5.00000214
11.21000000,-3.61678725,-1.34785479,-2.85823927,-0.54124695,0.96245664,0.00907395,5.23641398,2.38421071,0.00000000,-6.33903844,0.25250655,4.29420470,-2.93733109,0.00000000,-4.39853696,-2.65739259,-5.00000214
11.21500000,-3.61875805,-1.39802891,-2.85940286,-0.54135178,0.96248806,0.00911120,5.26747395,2.44378621,0.00000000,-6.39307783,0.29337143,4.32370724,-3.00127869,0.00000000,-4.43902529,-2.74328253,-5.00000214
11.22000000,-3.62630477,-1.45773848,-2.98604012,-0.54092876,0.96218838,0.00831272,5.31144723,2.44137577,0.00000000,-6.50348815,0.33674697,4.28120399,-3.03284617,0.00000000,-4.44215086,-2.60372675,-5.00000214
11.22500000,-3.61715906,-1.40851174,-2.87560117,-0.54152895,0.96252409,0.00946274,5.33775035,2.47768796,0.00000000,-6.50725331,0.33938565,4.33090841,-3.03307529,0.00000000,-4.45330837,-2.62002902,-5.00000214
11.23000000,-3.65277277,-1.38530443,-2.85870483,-0.54129770,0.96254907,0.00942096,5.34870482,2.44450833,0.00000000,-6.49154939,0.30275474,4.44372057,-3.03351232,0.00000000,-4.59436450,-2.72497919,-5.00000214
11.23500000,-3.66106586,-1.38866386,-2.84576314,-0.54113463,0.96242704,0.00953378,5.34612814,2.45889180,0.00000000,-6.49305492,0.30428280,4.42845166,-3.00917502,0.00000000,-4.59671476,-2.72058573,-5.00000214
11.24000000,-3.63162059,-1.41468510,-2.80084809,-0.54139190,0.96247429,0.00954023,5.32657503,2.49338017,0.00000000,-6.47649660,0.29868955,4.39358893,-3.04209667,0.00000000,-4.53770731,-2.67577386,-5.00000214
11.24500000,-3.63561485,-1.40464914,-2.79094854,-0.54130397,0.96245418,0.00965778,5.31792435,2.49011123,0.00000000,-6.46860380,0.35661627,4.40436331,-3.04540622,0.00000000,-4.55126342,-2.72745729,-5.00000214
11.25000000,-3.63693860,-1.37658246,-2.78089427,-0.54136010,0.96252023,0.00944553,5.32829074,2.44185776,0.00000000,-6.49302708,0.34853669,4.48318010,-3.01961147,0.00000000,-4.69511408,-2.68994951,-5.00000214
11.25500000,-3.63735985,-1.38170855,-2.78046695,-0.54134619,0.96251398,0.00954097,5.32808743,2.45213060,0.00000000,-6.49599880,0.31769619,4.49498269,-3.03247996,0.00000000,-4.71043881,-2.68596251,-5.00000214
11.26000000,-3.64021230,-1.35435669,-2.80400118,-0.54133946,0.96249088,0.00956599,5.33940200,2.43533822,0.00000000,-6.47902624,0.27194267,4.52767265,-3.03505045,0.00000000,-4.76183555,-2.68899348,-5.00000214
11.26500000,-3.64553516,-1.36297373,-2.79890775,-0.54136944,0.96252516,0.00969996,5.33688762,2.44277038,0.00000000,-6.48125221,0.27379726,4.52196187,-3.01757274,0.00000000,-4.76155997,-2.68670320,-5.00000214
11.27000000,-3.63658442,-1.35085357,-2.79682457,-0.54119101,0.96254936,0.00968493,5.31037139,2.43041377,0.00000000,-6.47571862,0.31918109,4.51465987,-3.03548476,0.00000000,-4.75308180,-2.69521249,-5.00000214
11.27500000,-3.63931224,-1.32564605,-2.79765100,-0.54116210,0.96250896,0.00973484,5.31007077,2.41360529,0.00000000,-6.45588724,0.29131862,4.51004882,-3.01003866,0.00000000,-4.75226533,-2.67435133,-5.00000214
11.28000000,-3.64196387,-1.32736637,-2.78333756,-0.54112821,0.96244700,0.00985923,5.30978250,2.42837351,0.00000000,-6.45620947,0.29361814,4.50621012,-2.99084953,0.00000000,-4.75012132,-2.67176565,-5.00000214
11.28500000,-3.64690632,-1.38709111,-2.78590890,-0.54097237,0.96244899,0.01014809,5.27933701,2.50737009,0.00000000,-6.42725341,0.30740014,4.46929164,-3.09246717,0.00000000,-4.66761474,-2.68799530,-5.00000214
11.29000000,-3.64656948,-1.39647001,-2.77872280,-0.54107241,0.96249819,0.01000484,5.28712070,2.50923729,0.00000000,-6.42535097,0.30532423,4.45738151,-3.07659613,0.00000000,-4.67282431,-2.68659373,-5.00000214
11.29500000,-3.64482545,-1.36964395,-2.81139997,-0.54099484,0.96257974,0.00996547,5.29712536,2.47484582,0.00000000,-6.45471523,0.24775653,4.50881582,-3.07643106,0.00000000,-4.76061515,-2.71250666,-5.00000214
11.30000000,-3.67791477,0.71216997,-1.21714102,-0.53960718,0.96228193,0.02019946,4.75798901,1.02482403,0.00000000,-5.78261534,1.31957984,4.82921564,-1.59352585,0.00000000,-4.80418163,-3.88951972,-5.00000214
11.30500000,-3.63635459,-1.24434742,-2.75084602,-0.54087565,0.96260812,0.00939961,5.28811373,2.30494006,0.00000000,-6.45345810,0.31934458,4.53256801,-2.89766697,0.00000000,-4.82020138,-2.64069678,-5.00000214
11.31000000,-3.63871411,-1.31918806,-2.75677323,-0.54103852,0.96258896,0.00964836,5.29462534,2.40875940,0.00000000,-6.43306642,0.23195931,4.54997622,-3.00521932,0.00000000,-4.82179443,-2.69142165,-5.00000214
11.31500000,-3.63512188,-1.35144959,-2.75364875,-0.54093460,0.96259807,0.00969395,5.26582500,2.44672093,0.00000000,-6.39596611,0.20828634,4.52979071,-3.04759929,0.00000000,-4.79877259,-2.71533993,-5.00000214
11.32000000,-3.63945756,-1.35479808,-2.74299945,-0.54095906,0.96257377,0.00984920,5.26839228,2.46507393,0.00000000,-6.39550690,0.20801795,4.51925306,-3.01767851,0.00000000,-4.79429691,-2.71146684,-5.00000214
11.32500000,-3.63798664,-1.36620764,-2.77089695,-0.54081451,0.96261867,0.00976394,5.24166328,2.45873581,0.00000000,-6.38473358,0.25821759,4.48995890,-3.06135579,0.00000000,-4.73764324,-2.74308001,-5.00000214
11.33000000,-3.64660134,-1.37265345,-2.70595037,-0.54086244,0.96249165,0.00973553,5.25137434,2.47541225,0.00000000,-6.38106938,0.24181034,4.47745137,-3.04336723,0.00000000,-4.69982219,-2.70145439,-5.00000214
11.33500000,-3.63737560,-1.33481274,-2.74871268,-0.54079104,0.96256304,0.00971905,5.23418165,2.43454002,0.00000000,-6.35515653,0.17026933,4.50308542,-3.02302790,0.00000000,-4.76779254,-2.70042588,-5.00000214
11.34000000,-3.63623469,-1.34789491,-2.72764038,-0.54079109,0.96248971,0.00977310,5.21336272,2.44364412,0.00000000,-6.34580116,0.27354670,4.55100618,-3.02446788,0.00000000,-4.85993556,-2.60365843,-5.00000214
11.34500000,-3.63878363,-1.35490359,-2.71767993,-0.54084677,0.96244315,0.00981779,5.21567927,2.45557937,0.00000000,-6.34602515,0.27486463,4.54406945,-3.00556744,0.00000000,-4.85570052,-2.60076809,-5.00000214
11.35000000,-3.62912450,-1.42885803,-2.72234606,-0.54066656,0.96243312,0.00998603,5.17217927,2.55266482,0.00000000,-6.30954932,0.26093554,4.42025059,-3.11740039,0.00000000,-4.63826139,-2.71937846,-5.00000214
11.35500000,-3.64072633,-1.43856081,-2.82609696,-0.54088506,0.96239571,0.01014540,5.21954500,2.57683149,0.00000000,-6.33135761,0.22249500,4.35739572,-3.11432026,0.00000000,-4.51889108,-2.65349079,-5.00000214
11.36000000,-3.60767069,-1.38462776,-2.77311572,-0.54069115,0.96248763,0.00978307,5.16474149,2.49104698,0.00000000,-6.31336896,0.18859890,4.44007332,-3.04347997,0.00000000,-4.75249278,-2.63341715,-5.00000214
11.36500000,-3.63830247,-1.44903830,-2.81829125,-0.54079373,0.96245016,0.00995330,5.19509104,2.56951123,0.00000000,-6.30603255,0.20932528,4.35670424,-3.11296097,0.00000000,-4.53467046,-2.59291610,-5.00000214
11.37000000,-3.61452892,-1.46258495,-2.88298677,-0.54067224,0.96255980,0.01014311,5.16053843,2.59829337,0.00000000,-6.28795230,0.17641598,4.34895112,-3.16531290,0.00000000,-4.57104706,-2.70871179,-5.00000214
11.37500000,-3.65552422,-1.46997776,-2.75062250,-0.53954691,0.96220165,0.00877539,5.03083086,2.50230859,0.00000000,-6.12519330,0.28149848,4.28753883,-3.04778463,0.00000000,-4.49625910,-2.50678560,-5.00000214
11.38000000,-3.63025646,-1.52031265,-2.76723299,-0.53946688,0.96222144,0.00901989,4.98250900,2.57042414,0.00000000,-6.10898880,0.32013240,4.27460469,-3.13758409,0.00000000,-4.53046338,-2.53797913,-5.00000214
11.38500000,-3.60860785,-1.47685980,-2.76205717,-0.54018062,0.96261005,0.00993073,5.00295559,2.59379733,0.00000000,-6.10045986,0.31823917,4.30382473,-3.15952335,0.00000000,-4.52575508,-2.54174611,-5.00000214
11.39000000,-3.63701858,-1.50179140,-2.82903035,-0.53963824,0.96234444,0.00899981,5.00554644,2.54628217,0.00000000,-6.10871266,0.30435277,4.29683462,-3.12176612,0.00000000,-4.55945344,-2.52323007,-5.00000214
11.39500000,-3.64296213,-1.49519684,-2.82954620,-0.53945806,0.96222573,0.00916137,5.00665931,2.56426546,0.00000000,-6.10842776,0.30149127,4.29059603,-3.12175247,0.00000000,-4.56197003,-2.52198888,-5.00000214
11.40000000,-3.62775589,-1.44184567,-2.81318566,-0.53992681,0.96258058,0.01032793,5.01960083,2.59824856,0.00000000,-6.10502182,0.29635980,4.30443252,-3.14847292,0.00000000,-4.55868547,-2.52306794,-5.00000214
11.40500000,-3.64655954,-1.47089601,-2.78185088,-0.53995885,0.96260123,0.01021144,5.03569499,2.62079833,0.00000000,-6.08785216,0.13510305,4.39347467,-3.17700610,0.00000000,-4.66005554,-2.66129966,-5.00000214
11.41000000,-3.65231037,-1.42164919,-2.74626408,-0.54008698,0.96259775,0.01023131,5.06508148,2.56616398,0.00000000,-6.13619545,0.16630563,4.45613812,-3.12041527,0.00000000,-4.74065872,-2.63389569,-5.00000214
11.41500000,-3.66238726,-1.43633714,-2.74157723,-0.53985385,0.96253297,0.00986658,5.05770443,2.55680042,0.00000000,-6.13732736,0.16734942,4.45012319,-3.10913965,0.00000000,-4.74172613,-2.63146687,-5.00000214
11.42000000,-3.63340236,-1.38086213,-2.73944436,-0.53985892,0.96264003,0.01023957,5.00251445,2.52884378,0.00000000,-6.07482777,0.15199453,4.38786045,-3.09265075,0.00000000,-4.66059288,-2.64879714,-5.00000214
11.42500000,-3.66874698,-1.41984688,-2.65984961,-0.53973011,0.96250305,0.00983539,5.00880636,2.53986270,0.00000000,-6.05140132,0.15805808,4.47986221,-3.09115918,0.00000000,-4.76015249,-2.62811731,-5.00000214
11.43000000,-3.66416366,-1.49680305,-2.77804697,-0.53910971,0.96214732,0.00880855,4.95866746,2.53739528,0.00000000,-6.03045423,0.21423668,4.36508133,-3.09529065,0.00000000,-4.68821663,-2.44379674,-5.00000214
11.43500000,-3.65071428,-1.54005287,-2.81976871,-0.53896944,0.96219441,0.00907979,4.94036765,2.60077905,0.00000000,-6.04274823,0.24657821,4.33569760,-3.18534571,0.00000000,-4.67958496,-2.50436759,-5.00000214
11.44000000,-3.65416073,-1.54212406,-2.81180964,-0.53888234,0.96219175,0.00915181,4.94025591,2.61482021,0.00000000,-6.04339640,0.24678556,4.33216948,-3.16227060,0.00000000,-4.67638102,-2.49796599,-5.00000214
11.44500000,-3.65174458,-1.57439863,-2.79439092,-0.53881315,0.96216187,0.00914130,4.91918926,2.64996940,0.00000000,-6.00930461,0.19801628,4.32658340,-3.19818471,0.00000000,-4.68354914,-2.42023408,-5.00000214
11.45000000,-3.64847220,-1.60431888,-2.76357945,-0.53876758,0.96220525,0.00908156,4.88791132,2.67783812,0.00000000,-5.96398059,0.13917581,4.35174082,-3.23247258,0.00000000,-4.74720476,-2.41632736,-5.00000214
11.45500000,-3.65051297,-1.64676225,-2.74423489,-0.53862503,0.96219345,0.00916130,4.86702910,2.73137255,0.00000000,-5.94410655,0.16152354,4.28516805,-3.26278259,0.00000000,-4.63005426,-2.42652356,-5.00000214
11.46000000,-3.64612472,-1.64561102,-2.78008638,-0.53829502,0.96213641,0.00917641,4.84065193,2.73386112,0.00000000,-5.92560432,0.14957258,4.25529253,-3.28408817,0.00000000,-4.62745194,-2.41859391,-5.00000214
11.46500000,-3.60382154,-1.57180278,-2.75285578,-0.53811609,0.96217946,0.00888499,4.72051447,2.62388786,0.00000000,-5.80626564,0.27045578,4.12532641,-3.17380050,0.00000000,-4.46630315,-2.37821244,-5.00000214
11.47000000,-3.63698186,-1.64196897,-2.77688463,-0.53813410,0.96210641,0.00907990,4.81889952,2.71833004,0.00000000,-5.94823452,0.28987765,4.21676724,-3.26498667,0.00000000,-4.58809720,-2.42060113,-5.00000214
11.47500000,-3.58535875,-1.54366126,-2.74893649,-0.53792603,0.96219252,0.00873886,4.66846867,2.56821303,0.00000000,-5.80295283,0.45805333,4.07451227,-3.13039566,0.00000000,-4.41799829,-2.36889955,-5.00000214
11.48000000,-3.65413492,-1.57431131,-2.73855333,-0.53821839,0.96205983,0.00889955,4.86458121,2.62694225,0.00000000,-6.00471923,0.36767832,4.32391483,-3.18491584,0.00000000,-4.72387383,-2.33967644,-5.00000214
11.48500000,-3.64689833,-1.61228271,-2.74967218,-0.53820146,0.96203974,0.00901039,4.85919590,2.66883879,0.00000000,-6.03350494,0.43189079,4.28682810,-3.22916007,0.00000000,-4.68553554,-2.37104706,-5.00000214
11.49000000,-3.64783959,-1.55461424,-2.77489059,-0.53810966,0.96211275,0.00887963,4.86303329,2.59281957,0.00000000,-6.05080863,0.46611797,4.22614412,-3.17579561,0.00000000,-4.57648815,-2.42316382,-5.00000214
11.49500000,-3.63254066,-1.51272922,-2.69237240,-0.53891675,0.96243196,0.01010437,4.92155095,2.64299648,0.00000000,-6.11894973,0.48848341,4.36305001,-3.20621040,0.00000000,-4.74034850,-2.56165673,-5.00000214
11.50000000,-3.64529762,-1.45406998,-2.72235670,-0.53889867,0.96247049,0.01017887,4.95354903,2.59767129,0.00000000,-6.12010204,0.34128082,4.33380999,-3.16337612,0.00000000,-4.68691584,-2.54754589,-5.00000214
11.50500000,-3.61338004,-1.32793092,-2.88680215,-0.53885271,0.96249773,0.00965904,5.01035531,2.42296434,0.00000000,-6.25103738,0.32966521,4.46723757,-3.09517967,0.00000000,-4.96856244,-2.54232468,-5.00000214
11.51000000,-3.62094972,-1.28202200,-2.85974077,-0.53865782,0.96256886,0.00996006,4.95208458,2.39059812,0.00000000,-6.15434118,0.43018759,4.41213178,-3.07244161,0.00000000,-4.84834048,-2.56875563,-5.00000214
11.51500000,-3.63512324,-1.45824655,-2.76820118,-0.53874958,0.96236620,0.00991771,4.97386006,2.57701304,0.00000000,-6.19934248,0.45780538,4.34350962,-3.14498952,0.00000000,-4.73588240,-2.52780984,-5.00000214
11.52000000,-3.61532318,-1.48525223,-2.81546403,-0.53851872,0.96236758,0.00996731,4.93645516,2.61412733,0.00000000,-6.18250669,0.42662843,4.21349429,-3.18002813,0.00000000,-4.57457563,-2.57281986,-5.00000214
11.52500000,-3.63771148,-1.43539062,-2.76154130,-0.53857740,0.96250728,0.01018255,4.94400552,2.57933735,0.00000000,-6.13988984,0.35094619,4.27452830,-3.15186103,0.00000000,-4.61348755,-2.66135380,-5.00000214
11.53000000,-3.61814598,-1.32251091,-2.73149145,-0.53848896,0.96257123,0.00991978,4.87136793,2.42925056,0.00000000,-6.05170774,0.45807161,4.18390579,-2.99936434,0.00000000,-4.47721363,-2.63645044,-5.00000214
11.53500000,-3.62829789,-1.45961015,-2.78952924,-0.53857072,0.96245003,0.01003176,4.96001136,2.59380569,0.00000000,-6.18422582,0.35736216,4.25240747,-3.15331534,0.00000000,-4.60669314,-2.60418589,-5.00000214
11.54000000,-3.63449795,-1.40468420,-2.74362602,-0.53855104,0.96253079,0.00974230,4.95303062,2.50826333,0.00000000,-6.16638364,0.39866219,4.25423634,-3.07122296,0.00000000,-4.60554805,-2.58990441,-5.00000214
11.54500000,-3.62888797,-1.45228363,-2.72382868,-0.53853953,0.96253205,0.01023290,4.93719214,2.61310938,0.00000000,-6.13076657,0.26384873,4.28752033,-3.16379582,0.00000000,-4.65790780,-2.63628711,-5.00000214
