time,pelvis_tilt,pelvis_list,pelvis_rotation,pelvis_tx,pelvis_ty,pelvis_tz,hip_flexion_r,hip_adduction_r,hip_rotation_r,knee_angle_r,ankle_angle_r,hip_flexion_l,hip_adduction_l,hip_rotation_l,knee_angle_l,ankle_angle_l,lumbar_extension
0.00000000,0.72649931,3.34892542,-2.50586429,-0.72398218,0.95347596,0.01015695,1.82573652,-4.41187626,0.00000000,-3.48076388,1.80361686,-0.02712811,2.13580904,0.00000000,0.69357733,-4.74075947,-5.00000214
0.00500000,0.75201357,3.35286494,-2.52015033,-0.72383106,0.95355278,0.01020275,1.77563057,-4.41717861,0.00000000,-3.45411412,1.84017673,-0.11408870,2.14552368,0.00000000,0.78137829,-4.69749600,-5.00000214
0.01000000,0.78645031,3.35488082,-2.53934110,-0.72383892,0.95355422,0.01024265,1.79121324,-4.42072964,0.00000000,-3.56332224,1.94959751,-0.18489978,2.14453053,0.00000000,0.86127907,-4.80334830,-5.00000214
0.01500000,0.79725354,3.35091849,-2.44532184,-0.72405326,0.95355769,0.00980882,1.73848011,-4.44376882,0.00000000,-3.47133308,1.79056340,-0.10338369,2.16525966,0.00000000,0.71960734,-4.72472502,-5.00000214
0.02000000,0.74764286,3.29856765,-2.47778036,-0.72394726,0.95351244,0.01006797,1.75644727,-4.36103134,0.00000000,-3.39591632,1.68479545,-0.03303394,2.08206280,0.00000000,0.65246757,-4.64018815,-5.00000214
0.02500000,0.75070030,3.36932186,-2.53175020,-0.72386555,0.95348824,0.01003233,1.84352317,-4.44452345,0.00000000,-3.58557866,1.95093743,-0.15600497,2.15586412,0.00000000,0.90254735,-4.90892676,-5.00000214
0.03000000,0.84716654,3.37109373,-2.49650628,-0.72416284,0.95365134,0.00987795,1.76372375,-4.46013835,0.00000000,-3.60905971,1.91549185,-0.21392671,2.17986891,0.00000000,0.85141085,-4.88332433,-5.00000214
0.03500000,0.75447752,3.34262191,-2.50981803,-0.72391195,0.95361751,0.00987292,1.77988778,-4.43017960,0.00000000,-3.45803861,1.73109898,-0.11320183,2.15827352,0.00000000,0.79099624,-4.66496937,-5.00000214
0.04000000,0.74318820,3.37988235,-2.50947485,-0.72393229,0.95349557,0.00964892,1.86196843,-4.49021225,0.00000000,-3.60353587,1.95665656,-0.11654729,2.20595056,0.00000000,0.84931203,-4.75055484,-5.00000214
0.04500000,0.72575188,3.36516225,-2.48602915,-0.72405672,0.95341718,0.00952642,1.84313589,-4.48016770,0.00000000,-3.49949911,1.77207046,-0.03538655,2.19199571,0.00000000,0.73973065,-4.59705808,-5.00000214
0.05000000,0.67978162,3.34419991,-2.46826236,-0.72407930,0.95337567,0.00948286,1.86312078,-4.45107343,0.00000000,-3.42958522,1.61408465,0.06453181,2.15554234,0.00000000,0.63483251,-4.49483541,-5.00000214
0.05500000,0.66489576,3.32979254,-2.44506878,-0.72397636,0.95338345,0.00952787,1.84759780,-4.42661452,0.00000000,-3.39260484,1.58375931,0.08787824,2.11908456,0.00000000,0.60454198,-4.51327940,-5.00000214
0.06000000,0.68847664,3.38291769,-2.51844302,-0.72386903,0.95338146,0.00971514,1.93813008,-4.48086527,0.00000000,-3.64666438,1.97070515,-0.11124299,2.19514677,0.00000000,0.94313924,-4.88970351,-5.00000214
0.06500000,0.66716585,3.33841935,-2.46281236,-0.72387168,0.95338591,0.00961808,1.88860265,-4.43636886,0.00000000,-3.51754652,1.80018130,-0.05181128,2.16009565,0.00000000,0.85694091,-4.73068238,-5.00000214
0.07000000,0.66034593,3.32151786,-2.44369861,-0.72383047,0.95339345,0.00949699,1.86286064,-4.42661584,0.00000000,-3.46472025,1.73025867,-0.01972064,2.15327022,0.00000000,0.80007231,-4.62175505,-5.00000214
0.07500000,0.65098939,3.30922694,-2.43503844,-0.72394008,0.95333688,0.00931197,1.85884364,-4.42217760,0.00000000,-3.39576056,1.57945146,0.07206565,2.14556601,0.00000000,0.65172957,-4.50859115,-5.00000214
0.08000000,0.60399980,3.28600439,-2.41348593,-0.72375553,0.95333472,0.00940222,1.86542902,-4.38439430,0.00000000,-3.33267528,1.49896012,0.12445821,2.10300195,0.00000000,0.61105979,-4.44266647,-5.00000214
0.08500000,0.64319297,3.30596007,-2.39893416,-0.72384875,0.95338433,0.00928341,1.82126625,-4.41697651,0.00000000,-3.32506489,1.51507466,0.09358689,2.13515934,0.00000000,0.60562707,-4.40716938,-5.00000214
0.09000000,0.66426109,3.35511667,-2.46934764,-0.72369888,0.95344881,0.00944069,1.85954257,-4.46601610,0.00000000,-3.45933742,1.77912720,-0.06789153,2.18835363,0.00000000,0.85712917,-4.54750280,-5.00000214
0.09500000,0.66381907,3.29324386,-2.46091001,-0.72366627,0.95346896,0.00944820,1.83229910,-4.39937719,0.00000000,-3.41318296,1.65230367,-0.01162940,2.12007463,0.00000000,0.73341664,-4.49526820,-5.00000214
0.10000000,0.65208794,3.28697269,-2.42633125,-0.72364463,0.95344651,0.00936398,1.83098755,-4.39636186,0.00000000,-3.39036972,1.58540312,0.03441649,2.11478414,0.00000000,0.67419381,-4.45014779,-5.00000214
0.10500000,0.67078943,3.39394981,-2.50237809,-0.72368831,0.95329925,0.00925077,2.00539987,-4.52481362,0.00000000,-3.76574698,2.07468462,-0.08447211,2.23462710,0.00000000,0.91897273,-4.79777865,-5.00000214
0.11000000,0.04954520,3.38798537,-2.31933678,-0.72366684,0.95292002,0.00990385,2.62657826,-4.42021716,0.00000000,-3.72231879,1.84769781,0.71648792,2.12907764,0.00000000,0.69812054,-4.90120361,-5.00000214
0.11500000,0.68029984,3.41555120,-2.51297255,-0.72374154,0.95337841,0.00919492,2.02959225,-4.55060257,0.00000000,-3.82354579,2.09312627,-0.06962077,2.25846495,0.00000000,0.86983009,-4.69974435,-5.00000214
0.12000000,0.59844054,3.37957321,-2.48392850,-0.72365461,0.95329217,0.00915770,2.03678386,-4.51174486,0.00000000,-3.66739879,1.89375829,0.05313689,2.23402407,0.00000000,0.75643544,-4.53664601,-5.00000214
0.12500000,0.17539665,3.36839088,-2.33144001,-0.72352555,0.95319248,0.01002297,2.48122477,-4.40021957,0.00000000,-3.73574230,1.87975503,0.54845850,2.13097701,0.00000000,0.70579987,-4.77462525,-5.00000214
0.13000000,0.69236554,3.39360261,-2.47404097,-0.72348431,0.95338065,0.00915364,1.98918994,-4.52887150,0.00000000,-3.82822994,2.13484934,-0.12211504,2.26375390,0.00000000,0.89879359,-4.65986616,-5.00000214
0.13500000,0.66547197,3.36809123,-2.42630927,-0.72343029,0.95328417,0.00904608,1.95627365,-4.50014857,0.00000000,-3.70152760,1.89725737,-0.01789570,2.22375585,0.00000000,0.73764735,-4.53867976,-5.00000214
0.14000000,0.10957106,3.40553358,-2.28324961,-0.72342805,0.95293196,0.00974223,2.57954047,-4.44636723,0.00000000,-3.80911550,1.97281945,0.64938557,2.17372499,0.00000000,0.65793698,-4.85872526,-5.00000214
0.14500000,0.65976295,3.43416627,-2.46242371,-0.72336539,0.95320931,0.00899735,2.05612453,-4.57762838,0.00000000,-3.91654001,2.26817347,-0.05237373,2.29623929,0.00000000,0.82767554,-4.72905505,-5.00000214
0.15000000,0.64744919,3.38109627,-2.45785327,-0.72327357,0.95324478,0.00903264,1.99825902,-4.51561168,0.00000000,-3.77827626,2.07338196,-0.00460975,2.23816466,0.00000000,0.72988389,-4.59271249,-5.00000214
0.15500000,0.62055469,3.37139074,-2.41592285,-0.72318289,0.95319592,0.00886399,1.97228818,-4.51580757,0.00000000,-3.68763195,1.94216033,0.05889345,2.23334835,0.00000000,0.65440436,-4.49900509,-5.00000214
0.16000000,0.60147936,3.34922931,-2.39328356,-0.72309612,0.95323373,0.00883931,1.95331195,-4.48411712,0.00000000,-3.61349802,1.82203439,0.10986755,2.20993424,0.00000000,0.57865900,-4.42296696,-5.00000214
0.16500000,0.59398890,3.34530437,-2.37860559,-0.72299371,0.95325383,0.00883675,1.92127283,-4.47629187,0.00000000,-3.54522889,1.76874279,0.12255733,2.19808134,0.00000000,0.55607861,-4.37391604,-5.00000214
0.17000000,0.59042716,3.34616069,-2.34948616,-0.72289927,0.95320868,0.00859294,1.88440060,-4.49314023,0.00000000,-3.49308156,1.74213104,0.12901606,2.21355731,0.00000000,0.53984870,-4.34036540,-5.00000214
0.17500000,0.63417860,3.41879880,-2.42821728,-0.72285758,0.95321723,0.00862770,1.99423755,-4.57944191,0.00000000,-3.82910715,2.25908145,-0.07473335,2.30071629,0.00000000,0.87832461,-4.80228434,-5.00000214
0.18000000,0.60709799,3.39914963,-2.42694845,-0.72278781,0.95319031,0.00869523,1.96838825,-4.55352299,0.00000000,-3.71419311,2.10501460,-0.00246055,2.27301522,0.00000000,0.77437336,-4.70068328,-5.00000214
0.18500000,0.68297186,3.42156540,-2.43540348,-0.72264423,0.95329553,0.00865583,1.90143497,-4.58688266,0.00000000,-3.77503326,2.24304289,-0.15394212,2.31231407,0.00000000,0.91059319,-4.76877662,-5.00000214
0.19000000,0.64882660,3.40653325,-2.44502015,-0.72254564,0.95327639,0.00873317,1.88596449,-4.56081175,0.00000000,-3.65734012,2.08130367,-0.08667999,2.28462184,0.00000000,0.82345977,-4.66164831,-5.00000214
0.19500000,0.63850796,3.38637154,-2.40307244,-0.72241486,0.95326982,0.00860912,1.82552414,-4.54239866,0.00000000,-3.54819199,1.93967804,-0.05556799,2.26668353,0.00000000,0.76308718,-4.55260616,-5.00000214
0.20000000,0.72967669,3.42042635,-2.44002222,-0.72234055,0.95335143,0.00864843,1.77183368,-4.58553833,0.00000000,-3.65796042,2.18278424,-0.24487102,2.30780553,0.00000000,0.94672373,-4.79032515,-5.00000214
0.20500000,0.12965195,3.39419416,-2.23375662,-0.72222300,0.95304024,0.00941340,2.32811108,-4.45675335,0.00000000,-3.57250013,1.98862305,0.52231574,2.18650187,0.00000000,0.71971441,-4.83510866,-5.00000214
0.21000000,0.10612613,3.36219874,-2.22828175,-0.72207405,0.95301073,0.00946684,2.28646200,-4.41885413,0.00000000,-3.44943816,1.86736267,0.56180305,2.14635801,0.00000000,0.65861863,-4.73904853,-5.00000214
0.21500000,0.72386715,3.41315960,-2.43739445,-0.72190950,0.95334805,0.00863592,1.69082675,-4.58031864,0.00000000,-3.54678036,2.11802517,-0.32953590,2.30544714,0.00000000,1.06659246,-4.78940491,-5.00000214
0.22000000,0.69671160,3.39330508,-2.39688367,-0.72189542,0.95332897,0.00849017,1.66605915,-4.56489432,0.00000000,-3.44302451,1.95705766,-0.23092116,2.28618665,0.00000000,0.92675846,-4.68513022,-5.00000214
0.22500000,0.66379958,3.39449548,-2.38602374,-0.72178379,0.95329412,0.00844278,1.65852569,-4.56588528,0.00000000,-3.37860915,1.89780680,-0.18538800,2.29240214,0.00000000,0.88414183,-4.59398215,-5.00000214
0.23000000,0.68917862,3.41377880,-2.42525702,-0.72169014,0.95332611,0.00853831,1.69075361,-4.58876955,0.00000000,-3.51642550,2.14777021,-0.27160147,2.31361653,0.00000000,0.99023515,-4.73501762,-5.00000214
0.23500000,0.66074378,3.40326621,-2.38271932,-0.72159099,0.95330489,0.00848897,1.66694759,-4.57929813,0.00000000,-3.43325508,2.01250571,-0.21672975,2.30577401,0.00000000,0.92674418,-4.61096811,-5.00000214
0.24000000,0.61806646,3.37021243,-2.37044958,-0.72149037,0.95324672,0.00841135,1.67274589,-4.54620069,0.00000000,-3.35682606,1.90137371,-0.11951118,2.27021994,0.00000000,0.81246876,-4.53774248,-5.00000214
0.24500000,0.62488530,3.35063461,-2.33284423,-0.72151827,0.95327194,0.00824300,1.63068553,-4.53053577,0.00000000,-3.29182003,1.81690977,-0.07230577,2.25630114,0.00000000,0.71093346,-4.43424715,-5.00000214
0.25000000,0.58700622,3.36065341,-2.33410837,-0.72134236,0.95324241,0.00819311,1.63056113,-4.54182264,0.00000000,-3.22112822,1.74174675,-0.02187751,2.26744193,0.00000000,0.65634706,-4.34041940,-5.00000214
0.25500000,0.57801875,3.35010180,-2.33862711,-0.72121438,0.95324572,0.00824843,1.59930413,-4.52765451,0.00000000,-3.15718055,1.70901164,-0.01347095,2.24861797,0.00000000,0.62311818,-4.26460705,-5.00000214
0.26000000,0.56843697,3.33105812,-2.31144439,-0.72106316,0.95330486,0.00816499,1.56837576,-4.51388990,0.00000000,-3.11257023,1.67188021,-0.00006390,2.23688396,0.00000000,0.59142249,-4.20865823,-5.00000214
0.26500000,0.60604719,3.41772630,-2.39832914,-0.72101845,0.95322493,0.00839102,1.71832037,-4.59968190,0.00000000,-3.51225429,2.24679669,-0.21150308,2.32386436,0.00000000,0.95848738,-4.65977107,-5.00000214
0.27000000,0.55544643,3.37946221,-2.35102663,-0.72092197,0.95313713,0.00830033,1.71451004,-4.56106522,0.00000000,-3.39699211,2.04927047,-0.09451963,2.27891173,0.00000000,0.81841506,-4.57413220,-5.00000214
0.27500000,0.64446058,3.42459545,-2.38500245,-0.72068852,0.95323683,0.00821490,1.65129915,-4.61935436,0.00000000,-3.49532243,2.23667165,-0.29817690,2.34419504,0.00000000,1.02435469,-4.75739422,-5.00000214
0.28000000,0.63359201,3.41419176,-2.34139941,-0.72066214,0.95319424,0.00815677,1.61502428,-4.60918589,0.00000000,-3.40497050,2.09240485,-0.24174687,2.32797829,0.00000000,0.92660905,-4.65102172,-5.00000214
0.28500000,0.58483732,3.42024324,-2.34347575,-0.72053359,0.95312371,0.00823723,1.66570059,-4.61184864,0.00000000,-3.42660552,2.12345560,-0.24660686,2.32842710,0.00000000,1.01914102,-4.66255992,-5.00000214
0.29000000,0.57159662,3.40833173,-2.38757518,-0.72030790,0.95314256,0.00835122,1.64956770,-4.59313073,0.00000000,-3.37207608,2.05545363,-0.26105889,2.31934100,0.00000000,1.01738952,-4.57812988,-5.00000214
0.29500000,0.57551144,3.38624306,-2.35115515,-0.72033514,0.95318953,0.00821656,1.61520378,-4.57515629,0.00000000,-3.31275392,1.92674657,-0.20919480,2.30242949,0.00000000,0.91895270,-4.47873834,-5.00000214
0.30000000,1.05836963,3.29143081,-2.44455052,-0.71946888,0.95398486,0.00910632,0.99225703,-4.42934961,0.00000000,-3.24121350,2.16859770,-1.02429569,2.15970223,0.00000000,1.39136736,-4.84203784,-5.00000214
0.30500000,1.01440246,3.28120995,-2.42401580,-0.71938600,0.95393723,0.00903262,1.01304313,-4.41804029,0.00000000,-3.18597418,2.02038677,-0.93767156,2.14574550,0.00000000,1.30255050,-4.78822740,-5.00000214
0.31000000,1.00284016,3.25717694,-2.40153849,-0.71928994,0.95392605,0.00899224,0.98052566,-4.39484233,0.00000000,-3.10969225,1.90007920,-0.89395243,2.12091433,0.00000000,1.21519721,-4.70396028,-5.00000214
0.31500000,0.61824379,3.43930840,-2.43111269,-0.71974031,0.95313734,0.00827994,1.66593944,-4.63782777,0.00000000,-3.57219690,2.33599750,-0.43545964,2.35952664,0.00000000,1.21212932,-4.73949000,-5.00000214
0.32000000,0.59019329,3.38811165,-2.42385494,-0.71962684,0.95315376,0.00830646,1.63210166,-4.57866852,0.00000000,-3.45159848,2.17551180,-0.36610347,2.29968691,0.00000000,1.09731738,-4.61329725,-5.00000214
0.32500000,0.54385033,3.37848355,-2.35848540,-0.71948340,0.95311094,0.00824047,1.63051131,-4.56910865,0.00000000,-3.38942794,2.05919919,-0.28497352,2.28969664,0.00000000,1.02687358,-4.50618036,-5.00000214
0.33000000,0.61179565,3.27688910,-2.37227374,-0.71907686,0.95341479,0.00880034,1.48202279,-4.41281725,0.00000000,-3.29293523,1.95422072,-0.35984636,2.14208762,0.00000000,0.95470330,-4.41389410,-5.00000214
0.33500000,0.64967239,3.26886616,-2.36605749,-0.71894952,0.95348507,0.00877563,1.38982962,-4.40387772,0.00000000,-3.20318396,1.85244615,-0.40111068,2.13750132,0.00000000,0.92801611,-4.31498194,-5.00000214
0.34000000,0.69225607,3.28987177,-2.31492339,-0.71876948,0.95347244,0.00855553,1.30369393,-4.44309790,0.00000000,-3.17304483,1.85599250,-0.45448275,2.17480744,0.00000000,0.93364703,-4.31383066,-5.00000214
0.34500000,0.77401360,3.29271793,-2.29244233,-0.71867065,0.95359861,0.00851872,1.17446162,-4.45274346,0.00000000,-3.13049223,1.87865143,-0.55556563,2.18700116,0.00000000,0.94376908,-4.30067104,-5.00000214
0.35000000,0.77315298,3.27205855,-2.31646989,-0.71854298,0.95354626,0.00856972,1.15750374,-4.42622056,0.00000000,-3.08747136,1.81059292,-0.55126173,2.16278979,0.00000000,0.91338916,-4.28193059,-5.00000214
0.35500000,0.97474109,3.34284813,-2.39096504,-0.71834066,0.95370764,0.00862973,1.02507491,-4.51467286,0.00000000,-3.29367797,2.26868694,-0.97002247,2.24948633,0.00000000,1.32046534,-4.69804241,-5.00000214
0.36000000,0.95296112,3.33908113,-2.37481294,-0.71827006,0.95366963,0.00851167,1.02907658,-4.51550586,0.00000000,-3.25998605,2.15526324,-0.91103776,2.24739964,0.00000000,1.23935187,-4.65988080,-5.00000214
0.36500000,0.90991044,3.31646655,-2.36552599,-0.71816419,0.95365253,0.00847459,1.01695202,-4.49032822,0.00000000,-3.15052242,1.99661114,-0.83625313,2.22686493,0.00000000,1.15619050,-4.49352514,-5.00000214
0.37000000,0.93622272,3.34944322,-2.38592175,-0.71803924,0.95366636,0.00847737,1.03492765,-4.53159809,0.00000000,-3.27122725,2.23554050,-0.92860587,2.26401594,0.00000000,1.27798413,-4.67069828,-5.00000214
0.37500000,0.87352905,3.33668100,-2.35894996,-0.71793788,0.95363352,0.00843807,1.06126754,-4.51863086,0.00000000,-3.20267483,2.12434671,-0.83583413,2.24916212,0.00000000,1.21202071,-4.59573813,-5.00000214
0.38000000,0.83763604,3.32030620,-2.34860551,-0.71781670,0.95358228,0.00834434,1.06992953,-4.50481926,0.00000000,-3.14464631,1.97054997,-0.75388509,2.23678113,0.00000000,1.10072490,-4.47665663,-5.00000214
0.38500000,0.80200880,3.30582382,-2.30907679,-0.71774373,0.95350248,0.00825709,1.07904866,-4.48907667,0.00000000,-3.09878404,1.89150327,-0.67024632,2.22195824,0.00000000,1.01061958,-4.39178645,-5.00000214
0.39000000,0.80410236,3.32030878,-2.30972150,-0.71765062,0.95350875,0.00828445,1.05700081,-4.49897981,0.00000000,-3.05816664,1.82699650,-0.65333565,2.23406573,0.00000000,0.95019770,-4.33114585,-5.00000214
0.39500000,0.90908936,3.37909690,-2.41192671,-0.71746550,0.95355009,0.00836501,1.06377037,-4.57386011,0.00000000,-3.33426316,2.38906805,-0.94748125,2.30466362,0.00000000,1.29744414,-4.69054257,-5.00000214
0.40000000,0.86948423,3.34985139,-2.37033704,-0.71732828,0.95355414,0.00817860,1.04118758,-4.55611970,0.00000000,-3.23034555,2.18751441,-0.86250707,2.28524059,0.00000000,1.18771798,-4.55651095,-5.00000214
0.40500000,0.84353155,3.33218876,-2.36345774,-0.71725216,0.95352569,0.00826367,1.03564879,-4.52909867,0.00000000,-3.16040737,2.05446555,-0.80120376,2.26033608,0.00000000,1.10292771,-4.44891546,-5.00000214
0.41000000,0.78258478,3.32419729,-2.32802223,-0.71708585,0.95344279,0.00818551,1.06301805,-4.52035428,0.00000000,-3.10601054,1.95173049,-0.70962801,2.24898402,0.00000000,1.03447152,-4.36955151,-5.00000214
0.41500000,0.76704545,3.32683760,-2.30027226,-0.71697124,0.95339673,0.00794798,1.04917763,-4.53389488,0.00000000,-3.05510178,1.85016440,-0.66087928,2.26600888,0.00000000,0.95724014,-4.28930576,-5.00000214
0.42000000,0.87528135,3.40151130,-2.41818873,-0.71690524,0.95344822,0.00824557,1.08621914,-4.60693993,0.00000000,-3.36870623,2.40683602,-0.93352083,2.33889653,0.00000000,1.27199160,-4.56248224,-5.00000214
0.42500000,0.79811978,3.36862277,-2.40045632,-0.71661260,0.95342552,0.00816228,1.08124583,-4.57595095,0.00000000,-3.23715055,2.23461502,-0.84730519,2.30971509,0.00000000,1.20501086,-4.40989636,-5.00000214
0.43000000,0.80655162,3.35373847,-2.38341855,-0.71661008,0.95341961,0.00820082,1.04611552,-4.55806630,0.00000000,-3.18835266,2.14546152,-0.81595894,2.28882280,0.00000000,1.12121369,-4.36031608,-5.00000214
0.43500000,0.78275004,3.34307828,-2.35174590,-0.71651567,0.95341798,0.00815190,1.03373096,-4.54989069,0.00000000,-3.13126215,2.04127736,-0.75052135,2.27892338,0.00000000,1.03071422,-4.29074836,-5.00000214
0.44000000,0.83124090,3.41624848,-2.43087849,-0.71639627,0.95336097,0.00815194,1.10162812,-4.63235862,0.00000000,-3.37535299,2.47224379,-0.92322331,2.36851935,0.00000000,1.28083504,-4.50647944,-5.00000214
0.44500000,0.77084128,3.39635033,-2.41597958,-0.71626113,0.95331876,0.00805466,1.11449452,-4.61005054,0.00000000,-3.27425155,2.25958287,-0.82286170,2.35079368,0.00000000,1.18204830,-4.33790102,-5.00000214
0.45000000,0.76115545,3.37056697,-2.38502654,-0.71617345,0.95324506,0.00805582,1.08230119,-4.57988938,0.00000000,-3.20815469,2.16822777,-0.78096080,2.31024599,0.00000000,1.10039386,-4.30137767,-5.00000214
0.45500000,0.77237918,3.39779796,-2.39482585,-0.71604792,0.95328352,0.00807276,1.07863279,-4.61174528,0.00000000,-3.25023340,2.27097661,-0.84317770,2.35027205,0.00000000,1.18410951,-4.36213726,-5.00000214
0.46000000,0.74993643,3.34845786,-2.38050324,-0.71593124,0.95329896,0.00812370,1.04809802,-4.55541972,0.00000000,-3.16291694,2.15113732,-0.79399681,2.29036629,0.00000000,1.10809847,-4.27304994,-5.00000214
0.46500000,0.72420539,3.35118132,-2.35917368,-0.71580689,0.95325367,0.00801731,1.05146502,-4.56299359,0.00000000,-3.11991594,2.05134149,-0.73586546,2.29839037,0.00000000,1.03260050,-4.21939006,-5.00000214
0.47000000,0.70216804,3.34620519,-2.36610955,-0.71568035,0.95323147,0.00797631,1.04670430,-4.55574203,0.00000000,-3.06773543,1.99827790,-0.70981517,2.29255852,0.00000000,1.00475921,-4.16343460,-5.00000214
0.47500000,0.85700236,3.43634240,-2.46320047,-0.71555553,0.95334817,0.00803477,1.01760541,-4.66492598,0.00000000,-3.36541942,2.57214499,-1.05632685,2.40221113,0.00000000,1.37290898,-4.45646108,-5.00000214
0.48000000,0.82775816,3.40345359,-2.45158907,-0.71546752,0.95334112,0.00807454,1.00347489,-4.62548315,0.00000000,-3.27431275,2.38189643,-0.99062838,2.36115372,0.00000000,1.27775670,-4.35896308,-5.00000214
0.48500000,0.78368081,3.38892311,-2.40464128,-0.71527385,0.95330310,0.00797007,0.99113548,-4.61475526,0.00000000,-3.20357731,2.33596166,-0.95996838,2.34868397,0.00000000,1.28878506,-4.35954166,-5.00000214
0.49000000,0.83431564,3.41616137,-2.42854454,-0.71521356,0.95333758,0.00806621,0.96068621,-4.64324003,0.00000000,-3.25497770,2.46664081,-1.07846859,2.38386597,0.00000000,1.41591449,-4.48640008,-5.00000214
0.49500000,0.81492304,3.38343403,-2.39764200,-0.71515697,0.95332426,0.00800817,0.93623741,-4.60665495,0.00000000,-3.17519318,2.28157042,-1.00864692,2.34399865,0.00000000,1.30272291,-4.36600397,-5.00000214
0.50000000,0.89263068,3.43186341,-2.47432337,-0.71507450,0.95334377,0.00801937,0.93124739,-4.66388133,0.00000000,-3.31528209,2.50326814,-1.18458068,2.40348603,0.00000000,1.47688827,-4.55005605,-5.00000214
0.50500000,0.86568321,3.41119069,-2.43925520,-0.71495501,0.95333767,0.00799511,0.90358329,-4.63802219,0.00000000,-3.22912815,2.37148574,-1.13494748,2.37890220,0.00000000,1.41142166,-4.45508129,-5.00000214
0.51000000,0.86774014,3.38959875,-2.41550617,-0.71487332,0.95336498,0.00794985,0.85338673,-4.62260442,0.00000000,-3.16036467,2.29113023,-1.11823733,2.35819187,0.00000000,1.35510315,-4.38061628,-5.00000214
0.51500000,0.90004847,3.41721043,-2.44888125,-0.71468903,0.95340021,0.00806689,0.85821987,-4.64960797,0.00000000,-3.26913810,2.54750024,-1.24857038,2.38664441,0.00000000,1.53986415,-4.60101187,-5.00000214
0.52000000,0.92011496,3.41792278,-2.44670228,-0.71459894,0.95342695,0.00805847,0.83098170,-4.65286083,0.00000000,-3.26308930,2.50765459,-1.27264382,2.38989159,0.00000000,1.53383471,-4.56458184,-5.00000214
0.52500000,0.87440940,3.38789167,-2.40464489,-0.71452378,0.95337750,0.00805096,0.81202391,-4.61401934,0.00000000,-3.13765997,2.28873021,-1.17100086,2.34878378,0.00000000,1.41038991,-4.41136848,-5.00000214
0.53000000,0.85280508,3.38416469,-2.38612975,-0.71439522,0.95333820,0.00791877,0.79720644,-4.61430397,0.00000000,-3.08277417,2.23632143,-1.14225587,2.34876084,0.00000000,1.37801723,-4.35800194,-5.00000214
0.53500000,0.82811484,3.37090332,-2.36760990,-0.71422281,0.95333128,0.00793189,0.77743692,-4.59519744,0.00000000,-3.01796211,2.18727367,-1.14267416,2.33980232,0.00000000,1.38817453,-4.25150899,-5.00000214
0.54000000,0.82761331,3.35521231,-2.35646065,-0.71415703,0.95334752,0.00796290,0.74340085,-4.58016609,0.00000000,-2.96991891,2.13970338,-1.12803844,2.31985538,0.00000000,1.34811616,-4.20838041,-5.00000214
0.54500000,0.90265913,3.37242740,-2.36034178,-0.71416210,0.95349475,0.00798167,0.68805764,-4.60183419,0.00000000,-3.03056914,2.20398017,-1.21291485,2.34782673,0.00000000,1.36408935,-4.25066265,-5.00000214
0.55000000,0.83060075,3.37927215,-2.35708759,-0.71402048,0.95336347,0.00801040,0.75400120,-4.60205740,0.00000000,-3.01618477,2.22760232,-1.15606339,2.34157045,0.00000000,1.39894135,-4.28820928,-5.00000214
0.55500000,0.79024336,3.38265271,-2.35040732,-0.71387754,0.95331494,0.00790431,0.77554911,-4.60868850,0.00000000,-2.97783146,2.14330080,-1.10062691,2.34956252,0.00000000,1.35295710,-4.21541808,-5.00000214
0.56000000,0.78077944,3.43487757,-2.44301325,-0.71363100,0.95328450,0.00792056,0.88592636,-4.66987947,0.00000000,-3.20295928,2.53926529,-1.26757564,2.42043216,0.00000000,1.68590094,-4.40020410,-5.00000214
0.56500000,0.86321070,3.42839955,-2.42496141,-0.71373577,0.95343760,0.00798310,0.80929649,-4.66336167,0.00000000,-3.23985342,2.53608823,-1.33382575,2.41085443,0.00000000,1.64755124,-4.40364784,-5.00000214
0.57000000,0.80958045,3.39027000,-2.37767467,-0.71360277,0.95337024,0.00802491,0.77207996,-4.61522578,0.00000000,-3.08053647,2.36863059,-1.22710322,2.35684056,0.00000000,1.52589940,-4.29931565,-5.00000214
0.57500000,0.83905493,3.42408935,-2.41816888,-0.71350176,0.95335550,0.00812886,0.78335263,-4.64948373,0.00000000,-3.16995278,2.55019686,-1.31855130,2.39176236,0.00000000,1.63964164,-4.47973957,-5.00000214
0.58000000,0.76806226,3.40489413,-2.39404673,-0.71329377,0.95322874,0.00796073,0.81548164,-4.63251459,0.00000000,-3.09846155,2.41905312,-1.22028652,2.38071395,0.00000000,1.56774783,-4.40618126,-5.00000214
0.58500000,0.69837869,3.38954049,-2.36334139,-0.71313296,0.95315060,0.00790633,0.82834083,-4.61388626,0.00000000,-2.99104177,2.24900168,-1.11837870,2.35487346,0.00000000,1.49263988,-4.30336506,-5.00000214
0.59000000,0.72027561,3.38037558,-2.33010187,-0.71311169,0.95321478,0.00795034,0.76595705,-4.59897729,0.00000000,-2.93298374,2.20212090,-1.11733434,2.34077607,0.00000000,1.43459170,-4.23714058,-5.00000214
0.59500000,0.72879543,3.36263548,-2.34265339,-0.71303048,0.95326715,0.00800129,0.72271228,-4.57813168,0.00000000,-2.87326875,2.16188474,-1.11935318,2.32031179,0.00000000,1.39338538,-4.16141529,-5.00000214
0.60000000,0.80672973,3.41243227,-2.37754504,-0.71301267,0.95336678,0.00810426,0.72204507,-4.63334495,0.00000000,-3.06300767,2.56257177,-1.27744795,2.37622635,0.00000000,1.56501718,-4.42288088,-5.00000214
0.60500000,0.73712279,3.40381629,-2.36470815,-0.71271924,0.95332702,0.00777483,0.74446519,-4.64576505,0.00000000,-2.98565385,2.37261218,-1.19748463,2.39062526,0.00000000,1.51532479,-4.27434504,-5.00000214
0.61000000,0.75046791,3.38719796,-2.36580702,-0.71277983,0.95330712,0.00806480,0.72281003,-4.60428705,0.00000000,-2.94560562,2.30227023,-1.17284592,2.34502819,0.00000000,1.44098871,-4.23278565,-5.00000214
0.61500000,0.72889909,3.37749139,-2.34719751,-0.71272132,0.95325422,0.00802430,0.70831325,-4.59212064,0.00000000,-2.87182990,2.16475758,-1.11883784,2.33526148,0.00000000,1.36548495,-4.13315629,-5.00000214
0.62000000,0.67654416,3.36353218,-2.31810439,-0.71247051,0.95323182,0.00793960,0.70195121,-4.58095996,0.00000000,-2.79578333,2.11482075,-1.07897894,2.33005444,0.00000000,1.35507535,-4.07764818,-5.00000214
0.62500000,0.79769852,3.39789966,-2.33055379,-0.71265966,0.95338550,0.00804636,0.63658715,-4.61586069,0.00000000,-2.91077422,2.22335916,-1.20342409,2.36500762,0.00000000,1.37590686,-4.16831224,-5.00000214
0.63000000,0.70884229,3.35618652,-2.30822301,-0.71238990,0.95331324,0.00801105,0.66265844,-4.56872431,0.00000000,-2.81256720,2.13782456,-1.11734995,2.31189735,0.00000000,1.35128769,-4.10261501,-5.00000214
0.63500000,0.71262755,3.35561535,-2.30852874,-0.71240809,0.95334959,0.00810584,0.64239404,-4.55497348,0.00000000,-2.77481247,2.08050036,-1.10310355,2.30905931,0.00000000,1.32486696,-4.00714401,-5.00000214
0.64000000,0.76737703,3.43499210,-2.37369790,-0.71239147,0.95332669,0.00811642,0.73457724,-4.64696232,0.00000000,-3.07513920,2.54077017,-1.26986416,2.39511585,0.00000000,1.56661125,-4.42498801,-5.00000214
0.64500000,0.73331216,3.41551252,-2.35826936,-0.71231130,0.95332617,0.00809591,0.72137468,-4.62680685,0.00000000,-2.97583670,2.35301582,-1.19317586,2.37859546,0.00000000,1.47103638,-4.26533031,-5.00000214
0.65000000,0.73105072,3.39680048,-2.32040465,-0.71224174,0.95333581,0.00812457,0.67246137,-4.60603137,0.00000000,-2.90394738,2.29218109,-1.15965945,2.35443245,0.00000000,1.39803386,-4.18107257,-5.00000214
0.65500000,0.72474262,3.38279947,-2.29063745,-0.71221962,0.95336254,0.00810933,0.64682800,-4.59054975,0.00000000,-2.84353155,2.19440447,-1.11995102,2.34239657,0.00000000,1.32627011,-4.08445532,-5.00000214
0.66000000,0.77543624,3.44027354,-2.35626665,-0.71216256,0.95335804,0.00816679,0.71698471,-4.65414614,0.00000000,-3.09987473,2.59528989,-1.28345332,2.40814233,0.00000000,1.55534898,-4.34769429,-5.00000214
0.66500000,0.71141620,3.39483566,-2.32605461,-0.71198042,0.95327709,0.00809507,0.71733852,-4.60271454,0.00000000,-2.98788589,2.41861867,-1.18108240,2.34885819,0.00000000,1.45111338,-4.26178217,-5.00000214
0.67000000,0.71332218,3.39646503,-2.30599053,-0.71197244,0.95331926,0.00783342,0.68564332,-4.62359212,0.00000000,-2.92630010,2.31072099,-1.14984524,2.37422050,0.00000000,1.38508435,-4.16355443,-5.00000214
0.67500000,0.72944392,3.42898311,-2.36716323,-0.71205188,0.95329667,0.00823149,0.77195234,-4.63394403,0.00000000,-3.12716507,2.62157242,-1.21810554,2.38344462,0.00000000,1.50033050,-4.41692434,-5.00000214
0.68000000,0.66299279,3.39875078,-2.34499841,-0.71188476,0.95327020,0.00820632,0.77961490,-4.59875556,0.00000000,-3.02014694,2.44114415,-1.12913225,2.35398372,0.00000000,1.43551783,-4.26407107,-5.00000214
0.68500000,0.67757589,3.40424588,-2.31121883,-0.71193019,0.95331915,0.00822012,0.74899476,-4.60454096,0.00000000,-2.98573903,2.36165958,-1.11050432,2.35875744,0.00000000,1.37909488,-4.17819957,-5.00000214
0.69000000,0.64859285,3.38660660,-2.26407524,-0.71178215,0.95327778,0.00791443,0.72890801,-4.60308103,0.00000000,-2.90593899,2.24082649,-1.04346829,2.35455925,0.00000000,1.28620497,-4.09371662,-5.00000214
0.69500000,0.67533705,3.39687946,-2.26334077,-0.71185489,0.95331323,0.00812873,0.69144973,-4.59108269,0.00000000,-2.87268062,2.19352808,-1.05367858,2.34941529,0.00000000,1.25322028,-4.02221443,-5.00000214
0.70000000,0.68566368,3.38900704,-2.28006535,-0.71182254,0.95331574,0.00811470,0.67114508,-4.58645973,0.00000000,-2.85669839,2.17857120,-1.05301022,2.34203397,0.00000000,1.22190970,-3.97591728,-5.00000214
0.70500000,0.77019800,3.43863866,-2.35946803,-0.71178915,0.95339584,0.00823317,0.70271653,-4.64443678,0.00000000,-3.12125357,2.62052822,-1.26657674,2.40096434,0.00000000,1.47359017,-4.26852926,-5.00000214
0.71000000,0.70267401,3.38311105,-2.32578634,-0.71160527,0.95330071,0.00814857,0.69893529,-4.58957636,0.00000000,-2.98994774,2.40270879,-1.15265069,2.34053141,0.00000000,1.34704806,-4.15851058,-5.00000214
0.71500000,0.75617818,3.43385885,-2.34781967,-0.71175121,0.95335653,0.00820448,0.73553960,-4.64142648,0.00000000,-3.16070432,2.63271307,-1.24331654,2.39211342,0.00000000,1.45900414,-4.35325618,-5.00000214
0.72000000,0.72663846,3.41633766,-2.30909694,-0.71173393,0.95335593,0.00815395,0.72142587,-4.61937684,0.00000000,-3.06777460,2.44937086,-1.16311764,2.37438447,0.00000000,1.36488857,-4.21040711,-5.00000214
0.72500000,0.74209263,3.44678292,-2.37553139,-0.71168719,0.95335454,0.00819575,0.77142636,-4.65286380,0.00000000,-3.18711433,2.67726327,-1.23934567,2.40668503,0.00000000,1.46825488,-4.31164813,-5.00000214
0.73000000,0.73506775,3.41467578,-2.33376599,-0.71165174,0.95337993,0.00812505,0.70706600,-4.61994639,0.00000000,-3.05387406,2.44091687,-1.17668533,2.37129228,0.00000000,1.34366411,-4.14182050,-5.00000214
0.73500000,0.69994997,3.41245591,-2.32522396,-0.71160996,0.95336794,0.00820246,0.70708550,-4.61055125,0.00000000,-2.98524623,2.35530299,-1.11543838,2.36932065,0.00000000,1.28384596,-4.07377458,-5.00000214
0.74000000,0.70833895,3.36459397,-2.30902193,-0.71160141,0.95337031,0.00821161,0.66640114,-4.56270785,0.00000000,-2.93499123,2.28852177,-1.08163191,2.31008111,0.00000000,1.19688820,-4.07611757,-5.00000214
0.74500000,0.66283471,3.35603501,-2.30718025,-0.71144291,0.95334108,0.00810552,0.68728703,-4.55871755,0.00000000,-2.88405307,2.20948302,-1.04347475,2.31125563,0.00000000,1.18836224,-4.00914154,-5.00000214
0.75000000,0.68672944,3.35528990,-2.28783331,-0.71152093,0.95334034,0.00809883,0.65946498,-4.55390714,0.00000000,-2.86430385,2.14044240,-1.03029256,2.30487590,0.00000000,1.12955767,-3.97336599,-5.00000214
0.75500000,0.78165043,3.42979241,-2.39166131,-0.71147120,0.95338047,0.00812619,0.71357098,-4.64263864,0.00000000,-3.18554149,2.65400784,-1.29404918,2.39475834,0.00000000,1.46819473,-4.36837418,-5.00000214
0.76000000,0.75044817,3.40057178,-2.38568930,-0.71131446,0.95338605,0.00810994,0.66871801,-4.61126000,0.00000000,-3.04988402,2.50535590,-1.25167382,2.36425603,0.00000000,1.40512850,-4.24134404,-5.00000214
0.76500000,0.74028163,3.38097859,-2.36570289,-0.71124821,0.95339413,0.00809226,0.62701871,-4.59255161,0.00000000,-2.96100718,2.40234497,-1.21461017,2.34206786,0.00000000,1.33769232,-4.16497789,-5.00000214
0.77000000,0.76362610,3.36842355,-2.34535615,-0.71134001,0.95341242,0.00815816,0.58878058,-4.57395111,0.00000000,-2.91815098,2.29958427,-1.19437998,2.32432338,0.00000000,1.26192393,-4.12096725,-5.00000214
0.77500000,0.72786316,3.37707977,-2.35000251,-0.71115325,0.95334870,0.00808367,0.60285400,-4.58942413,0.00000000,-2.88577709,2.25887427,-1.16124140,2.33554373,0.00000000,1.24626251,-4.08756555,-5.00000214
0.78000000,0.81238983,3.43325963,-2.44717131,-0.71112471,0.95337035,0.00816762,0.64240262,-4.65079211,0.00000000,-3.14704862,2.70090486,-1.38059023,2.40017676,0.00000000,1.51703522,-4.41045325,-5.00000214
0.78500000,0.79273028,3.42773482,-2.43692637,-0.71107913,0.95341008,0.00818430,0.61167339,-4.64029033,0.00000000,-3.04137264,2.52635999,-1.33799562,2.39505005,0.00000000,1.45786923,-4.23119194,-5.00000214
0.79000000,0.84256671,3.38957817,-2.37371559,-0.71119627,0.95346872,0.00812214,0.51372663,-4.60224365,0.00000000,-2.96345304,2.40052315,-1.31876908,2.35432165,0.00000000,1.33118197,-4.14017988,-5.00000214
0.79500000,0.80905377,3.42501277,-2.44870054,-0.71096534,0.95341100,0.00814793,0.60872050,-4.64514563,0.00000000,-3.09973465,2.67531706,-1.40400897,2.39600562,0.00000000,1.54512906,-4.44845538,-5.00000214
0.80000000,0.75338568,3.40122987,-2.41722034,-0.71093338,0.95333770,0.00798982,0.65215062,-4.62624730,0.00000000,-3.08128455,2.66132816,-1.31893982,2.37529314,0.00000000,1.49600589,-4.34758227,-5.00000214
0.80500000,0.75298882,3.37714096,-2.39715420,-0.71097291,0.95334940,0.00809106,0.61595607,-4.58695812,0.00000000,-2.99361114,2.46387283,-1.26105730,2.33724855,0.00000000,1.37981904,-4.21147013,-5.00000214
0.81000000,0.74091486,3.37633224,-2.40279557,-0.71088144,0.95335099,0.00804011,0.59705516,-4.58979352,0.00000000,-2.92776370,2.35649482,-1.22700216,2.34025596,0.00000000,1.31046963,-4.11503030,-5.00000214
0.81500000,0.79307615,3.39069689,-2.37822693,-0.71099226,0.95344767,0.00781173,0.53592867,-4.62256441,0.00000000,-2.89920301,2.31857112,-1.24877028,2.37969579,0.00000000,1.26034581,-4.02997532,-5.00000214
0.82000000,0.77004355,3.35439304,-2.37719820,-0.71089568,0.95339656,0.00805284,0.53152939,-4.56709799,0.00000000,-2.86520451,2.31811178,-1.21227598,2.31254071,0.00000000,1.22112076,-4.08990658,-5.00000214
0.82500000,0.84580363,3.42203358,-2.44116914,-0.71105052,0.95348917,0.00820122,0.58455101,-4.63981253,0.00000000,-3.10642231,2.62114423,-1.35335843,2.38904846,0.00000000,1.37980551,-4.33168650,-5.00000214
0.83000000,0.81579823,3.38423983,-2.38861476,-0.71101792,0.95345852,0.00810977,0.55452669,-4.59702705,0.00000000,-2.99259849,2.42981479,-1.27829180,2.34746161,0.00000000,1.28541720,-4.18022654,-5.00000214
0.83500000,0.77540021,3.38386607,-2.35320087,-0.71091246,0.95341532,0.00765451,0.54959651,-4.62925947,0.00000000,-2.90518561,2.28236291,-1.20136443,2.37669508,0.00000000,1.20128142,-4.06889834,-5.00000214
0.84000000,0.86670504,3.36978226,-2.36749206,-0.71097598,0.95349722,0.00793379,0.46532096,-4.59316956,0.00000000,-2.93293386,2.29181596,-1.28536813,2.34262178,0.00000000,1.16852695,-4.06736891,-5.00000214
0.84500000,0.97606764,3.37509852,-2.40071364,-0.71107631,0.95362067,0.00805830,0.38826537,-4.59737458,0.00000000,-3.00730088,2.37634408,-1.40300819,2.34455795,0.00000000,1.17733107,-4.12665282,-5.00000214
0.85000000,0.83143267,3.41690671,-2.44841183,-0.71076632,0.95341765,0.00801453,0.55380518,-4.64561452,0.00000000,-3.05766338,2.65995094,-1.40270910,2.39560969,0.00000000,1.46892108,-4.39899284,-5.00000214
0.85500000,0.84717423,3.41376462,-2.41550472,-0.71084778,0.95347035,0.00807247,0.51543296,-4.63565582,0.00000000,-2.99819070,2.47069276,-1.35598876,2.38523938,0.00000000,1.35203410,-4.24538679,-5.00000214
0.86000000,0.86037335,3.44164641,-2.43176191,-0.71083761,0.95345020,0.00815201,0.54976219,-4.66275467,0.00000000,-3.09422843,2.64983425,-1.39504792,2.41144411,0.00000000,1.41429569,-4.35864525,-5.00000214
0.86500000,0.84051979,3.40852119,-2.40555067,-0.71082585,0.95348844,0.00811477,0.50851332,-4.62367494,0.00000000,-2.97270419,2.44758583,-1.33041528,2.37472312,0.00000000,1.31675005,-4.16114201,-5.00000214
0.87000000,0.84565282,3.39054814,-2.38144681,-0.71082250,0.95349729,0.00803539,0.46071462,-4.60981588,0.00000000,-2.90255079,2.38278291,-1.30985044,2.36054095,0.00000000,1.25458059,-4.08994619,-5.00000214
0.87500000,0.80942988,3.37513476,-2.37267973,-0.71068545,0.95348739,0.00807817,0.45577554,-4.58967209,0.00000000,-2.83559926,2.30880415,-1.26897362,2.33884650,0.00000000,1.22435544,-4.02818491,-5.00000214
0.88000000,0.79821628,3.34936081,-2.34599822,-0.71062656,0.95348028,0.00813104,0.43641182,-4.55554319,0.00000000,-2.80220097,2.28323647,-1.24686453,2.30552737,0.00000000,1.19344322,-3.99094597,-5.00000214
0.88500000,0.82341689,3.36062322,-2.32186436,-0.71079793,0.95351046,0.00818237,0.42016927,-4.56067230,0.00000000,-2.79016406,2.21963056,-1.21763567,2.31334704,0.00000000,1.11139256,-3.96525886,-5.00000214
0.89000000,0.74443641,3.41734448,-2.40464757,-0.71063085,0.95328772,0.00814706,0.64036925,-4.62703855,0.00000000,-3.07210937,2.67636502,-1.27071719,2.37648783,0.00000000,1.39018680,-4.32756477,-5.00000214
0.89500000,0.87789268,3.47083487,-2.39001104,-0.71082653,0.95351877,0.00813320,0.53683765,-4.69022733,0.00000000,-3.13434441,2.67449819,-1.38377662,2.44786771,0.00000000,1.36324273,-4.32467414,-5.00000214
0.90000000,0.83658455,3.40871160,-2.39904251,-0.71075921,0.95349380,0.00824712,0.51296724,-4.61611890,0.00000000,-3.00025020,2.57110121,-1.32385240,2.36509607,0.00000000,1.30371873,-4.20771278,-5.00000214
0.90500000,0.83133404,3.42360141,-2.36051053,-0.71080924,0.95358136,0.00822264,0.47765038,-4.63322539,0.00000000,-2.91879570,2.37523362,-1.24970527,2.38761726,0.00000000,1.16470323,-4.04474929,-5.00000214
0.91000000,0.83517280,3.42881669,-2.42150939,-0.71073824,0.95352288,0.00832650,0.55456436,-4.63747081,0.00000000,-3.09234015,2.71337624,-1.34897429,2.38843589,0.00000000,1.35649059,-4.28515027,-5.00000214
0.91500000,0.81229331,3.42361846,-2.39677941,-0.71071811,0.95347750,0.00825815,0.55100528,-4.63203803,0.00000000,-3.02750417,2.56280693,-1.28652716,2.38515916,0.00000000,1.28005661,-4.16841416,-5.00000214
0.92000000,0.83300308,3.44539333,-2.40848919,-0.71068252,0.95340625,0.00825848,0.55852887,-4.65588469,0.00000000,-3.09281865,2.70063138,-1.35040475,2.40530613,0.00000000,1.36700432,-4.29282367,-5.00000214
0.92500000,0.81121969,3.42365931,-2.36039905,-0.71070215,0.95336524,0.00820400,0.52682166,-4.62910906,0.00000000,-2.97949871,2.48910960,-1.28218947,2.38055623,0.00000000,1.27316029,-4.14041664,-5.00000214
0.93000000,0.91600543,3.41571454,-2.36042466,-0.71074578,0.95354052,0.00824092,0.42074614,-4.62467714,0.00000000,-3.00630021,2.46764747,-1.36799367,2.37481523,0.00000000,1.21235729,-4.12442202,-5.00000214
0.93500000,0.84418219,3.39000157,-2.35632841,-0.71055719,0.95348869,0.00819534,0.41851412,-4.59999932,0.00000000,-2.87420717,2.40246946,-1.31935386,2.35383988,0.00000000,1.23362648,-4.02064827,-5.00000214
0.94000000,0.86635812,3.43272250,-2.40020650,-0.71067858,0.95348385,0.00832183,0.50356808,-4.64212044,0.00000000,-3.08380453,2.71651610,-1.39232643,2.39199262,0.00000000,1.37801631,-4.33092529,-5.00000214
0.94500000,0.84041430,3.41469738,-2.36821894,-0.71065915,0.95344675,0.00830250,0.49974470,-4.61746777,0.00000000,-3.01578846,2.55605479,-1.31538611,2.36962346,0.00000000,1.27802223,-4.23110300,-5.00000214
0.95000000,0.86532720,3.44911833,-2.40872007,-0.71067729,0.95343014,0.00835631,0.52687137,-4.65409294,0.00000000,-3.10116957,2.71014013,-1.36494013,2.40745933,0.00000000,1.33219779,-4.25012966,-5.00000214
0.95500000,0.84723463,3.42281867,-2.36777607,-0.71063676,0.95344247,0.00828027,0.47760118,-4.62668772,0.00000000,-2.97270499,2.50099017,-1.30277699,2.38141747,0.00000000,1.22827965,-4.06742159,-5.00000214
0.96000000,0.82429732,3.39389664,-2.34408835,-0.71048403,0.95344671,0.00823133,0.43746331,-4.59689891,0.00000000,-2.87639357,2.41838193,-1.28115119,2.35202784,0.00000000,1.19469243,-3.97341229,-5.00000214
0.96500000,0.92066563,3.39172797,-2.34042856,-0.71061180,0.95353809,0.00832866,0.36302007,-4.59297799,0.00000000,-2.93052412,2.47395155,-1.37099483,2.34716909,0.00000000,1.18663722,-4.02787081,-5.00000214
0.97000000,0.88879744,3.43663488,-2.39367725,-0.71059409,0.95350483,0.00839518,0.47381103,-4.63878970,0.00000000,-3.07684946,2.75242355,-1.42931948,2.39475880,0.00000000,1.38654390,-4.30379905,-5.00000214
0.97500000,0.84607576,3.42147371,-2.37213277,-0.71063689,0.95345373,0.00835411,0.50785121,-4.62056533,0.00000000,-3.03637962,2.60637994,-1.33447016,2.37684257,0.00000000,1.30104239,-4.24991519,-5.00000214
0.98000000,0.81515688,3.39516224,-2.30837640,-0.71054816,0.95344894,0.00810265,0.47336393,-4.60505728,0.00000000,-2.93469775,2.45548646,-1.26365621,2.36016468,0.00000000,1.21572496,-4.12521612,-5.00000214
0.98500000,0.75043779,3.39352549,-2.34030232,-0.71044381,0.95336057,0.00832455,0.51817846,-4.58627489,0.00000000,-2.87295454,2.37895309,-1.18918444,2.34413913,0.00000000,1.17342465,-4.06033637,-5.00000214
0.99000000,0.78641445,3.39095775,-2.30053769,-0.71050226,0.95340038,0.00829292,0.45538085,-4.58678995,0.00000000,-2.83170116,2.31989836,-1.20726482,2.34157833,0.00000000,1.14256029,-3.99229364,-5.00000214
0.99500000,0.80069133,3.37466770,-2.26183295,-0.71050617,0.95342594,0.00810935,0.40339536,-4.57858425,0.00000000,-2.77490324,2.24550080,-1.20279743,2.33807863,0.00000000,1.10454432,-3.91059565,-5.00000214
1.00000000,0.90448216,3.44812105,-2.38252485,-0.71052847,0.95343727,0.00842562,0.44660106,-4.65046887,0.00000000,-3.07403976,2.76297921,-1.46259431,2.40444566,0.00000000,1.42587948,-4.35273190,-5.00000214
1.00500000,0.85379696,3.45491517,-2.34463794,-0.71055854,0.95341974,0.00832433,0.46837678,-4.65876733,0.00000000,-3.00015113,2.59934413,-1.32796124,2.41178863,0.00000000,1.26965309,-4.23752494,-5.00000214
1.01000000,0.83239723,3.41211145,-2.30247412,-0.71055061,0.95337258,0.00824707,0.42918895,-4.61392133,0.00000000,-2.88210555,2.39356457,-1.23153880,2.36793245,0.00000000,1.11068181,-4.05251300,-5.00000214
1.01500000,0.96265779,3.41043343,-2.32580948,-0.71059217,0.95355469,0.00837243,0.32672456,-4.61299070,0.00000000,-2.96619323,2.45514801,-1.36494685,2.36256663,0.00000000,1.09110581,-4.10161424,-5.00000214
1.02000000,0.84925676,3.41673078,-2.31967366,-0.71056810,0.95341495,0.00838446,0.41576783,-4.61561722,0.00000000,-2.89487374,2.49800769,-1.25401749,2.36611744,0.00000000,1.11890972,-4.05551186,-5.00000214
1.02500000,0.82464693,3.40258228,-2.27362761,-0.71049197,0.95343909,0.00812029,0.41163722,-4.61592123,0.00000000,-2.85194643,2.38920033,-1.19991693,2.36947101,0.00000000,1.05519745,-3.94093715,-5.00000214
1.03000000,0.84025818,3.39769875,-2.27444743,-0.71053156,0.95343940,0.00825655,0.38731490,-4.59690931,0.00000000,-2.82452975,2.31440609,-1.16848269,2.34680301,0.00000000,0.96143655,-3.87071225,-5.00000214
1.03500000,0.81773359,3.44905425,-2.36641043,-0.71043732,0.95332863,0.00841287,0.53775641,-4.64598595,0.00000000,-3.07344386,2.73706100,-1.29696595,2.39893823,0.00000000,1.26814285,-4.21652378,-5.00000214
1.04000000,0.76795219,3.43504602,-2.34111089,-0.71049992,0.95323150,0.00832055,0.56333901,-4.65144187,0.00000000,-2.99359490,2.36386590,-1.17964432,2.38742851,0.00000000,1.13146219,-4.04763663,-5.00000214
1.04500000,0.81595387,3.43083846,-2.34109008,-0.71043775,0.95339081,0.00844758,0.49671931,-4.62813460,0.00000000,-3.01153428,2.71549102,-1.26932396,2.38001107,0.00000000,1.20595490,-4.16025486,-5.00000214
1.05000000,0.79701839,3.38770140,-2.27325832,-0.71044532,0.95339607,0.00842591,0.45986898,-4.57790369,0.00000000,-2.91693244,2.51979791,-1.19266435,2.32448720,0.00000000,1.09589371,-4.01430012,-5.00000214
1.05500000,0.83793356,3.44671828,-2.33758961,-0.71053523,0.95339283,0.00858476,0.51654671,-4.63542544,0.00000000,-3.08179000,2.76315176,-1.30210254,2.38203462,0.00000000,1.24807285,-4.25527147,-5.00000214
1.06000000,0.81700647,3.42440640,-2.29591200,-0.71056362,0.95336191,0.00858358,0.50224111,-4.60104389,0.00000000,-3.00089074,2.57365634,-1.22020918,2.35108924,0.00000000,1.13304284,-4.12314623,-5.00000214
1.06500000,0.79878654,3.41967311,-2.26228380,-0.71048963,0.95336163,0.00825992,0.48155025,-4.61956524,0.00000000,-2.94168421,2.49405628,-1.19087823,2.37223325,0.00000000,1.10695369,-4.03236551,-5.00000214
1.07000000,0.76680908,3.41109489,-2.24518181,-0.71059916,0.95333215,0.00852631,0.48825883,-4.58769700,0.00000000,-2.87680455,2.39882639,-1.12543407,2.34001693,0.00000000,1.04756067,-3.96175827,-5.00000214
1.07500000,0.85992021,3.42047088,-2.26850544,-0.71065566,0.95344199,0.00864485,0.43092249,-4.59926989,0.00000000,-2.96193081,2.47099970,-1.22736221,2.34880596,0.00000000,1.04951448,-4.02305044,-5.00000214
1.08000000,0.80875676,3.39019888,-2.21439635,-0.71056589,0.95336165,0.00865110,0.42060967,-4.55998130,0.00000000,-2.85623664,2.36509092,-1.16272179,2.31208013,0.00000000,1.02620425,-3.93107637,-5.00000214
1.08500000,0.81645228,3.46210681,-2.31528896,-0.71051238,0.95330217,0.00878470,0.54825841,-4.63521905,0.00000000,-3.11341225,2.75969957,-1.30440154,2.38558938,0.00000000,1.30459562,-4.27852599,-5.00000214
1.09000000,0.79893617,3.43424998,-2.23996643,-0.71055665,0.95330226,0.00857998,0.50634358,-4.60966500,0.00000000,-3.00433889,2.56073929,-1.21083689,2.36116913,0.00000000,1.16865858,-4.13707447,-5.00000214
1.09500000,0.91405972,3.44293240,-2.26664109,-0.71067812,0.95346051,0.00873125,0.42416518,-4.61477786,0.00000000,-3.07120528,2.59783331,-1.31850525,2.36832121,0.00000000,1.13863980,-4.17030775,-5.00000214
1.10000000,0.80570611,3.45133085,-2.27146217,-0.71053964,0.95333232,0.00870659,0.54346381,-4.62360615,0.00000000,-3.10144396,2.77141778,-1.27862910,2.37568382,0.00000000,1.28323827,-4.28056460,-5.00000214
1.10500000,0.81817493,3.43945964,-2.25982671,-0.71051012,0.95336632,0.00877653,0.50760179,-4.60744327,0.00000000,-3.07064842,2.77999754,-1.28142547,2.36249014,0.00000000,1.25664746,-4.25465979,-5.00000214
1.11000000,0.79243357,3.40720446,-2.23415377,-0.71048488,0.95338225,0.00881599,0.49454796,-4.56534448,0.00000000,-2.98650779,2.59455155,-1.22310499,2.32507523,0.00000000,1.18313143,-4.08468782,-5.00000214
1.11500000,0.75146191,3.39762797,-2.21941443,-0.71039602,0.95333070,0.00870762,0.50040471,-4.56033347,0.00000000,-2.91472010,2.48673581,-1.15203114,2.31974242,0.00000000,1.11292959,-3.99810562,-5.00000214
1.12000000,0.76769526,3.40282984,-2.20320076,-0.71048953,0.95335168,0.00875397,0.47328066,-4.55820832,0.00000000,-2.87442055,2.40049853,-1.13128788,2.31894686,0.00000000,1.04852168,-3.93585113,-5.00000214
1.12500000,0.78909752,3.39938574,-2.19228391,-0.71049034,0.95337561,0.00878085,0.44195097,-4.55585554,0.00000000,-2.87378892,2.42309235,-1.15596045,2.31176001,0.00000000,1.04547893,-3.94154353,-5.00000214
1.13000000,0.85192218,3.40133035,-2.18990798,-0.71056719,0.95342979,0.00887315,0.39766310,-4.55550372,0.00000000,-2.91589578,2.46286079,-1.21471485,2.31331446,0.00000000,1.04504943,-3.97019748,-5.00000214
1.13500000,0.83099636,3.45518909,-2.24952130,-0.71048807,0.95337380,0.00891232,0.51832386,-4.61724545,0.00000000,-3.12274882,2.81341132,-1.32534290,2.37342469,0.00000000,1.31713545,-4.27734351,-5.00000214
1.14000000,0.79678892,3.43039515,-2.21881734,-0.71043652,0.95333715,0.00887187,0.50167029,-4.58746014,0.00000000,-3.01817387,2.60080748,-1.23463974,2.34315424,0.00000000,1.19806474,-4.11864558,-5.00000214
1.14500000,0.80325858,3.42113269,-2.20229421,-0.71047787,0.95330499,0.00886774,0.47335345,-4.57730637,0.00000000,-2.96301459,2.50444510,-1.21105120,2.32777981,0.00000000,1.14384021,-4.04656135,-5.00000214
1.15000000,0.78210168,3.40445985,-2.17344597,-0.71038119,0.95330187,0.00879183,0.43733274,-4.55907483,0.00000000,-2.87021190,2.41993639,-1.18274262,2.31736675,0.00000000,1.10697690,-3.94217288,-5.00000214
1.15500000,0.76480333,3.39924227,-2.16782917,-0.71028509,0.95330042,0.00877546,0.42245409,-4.55890250,0.00000000,-2.82509063,2.38604888,-1.17164328,2.31413859,0.00000000,1.10807839,-3.88774887,-5.00000214
1.16000000,0.76471014,3.39328968,-2.13937119,-0.71034085,0.95336046,0.00882043,0.42359632,-4.56116953,0.00000000,-2.83219193,2.35467677,-1.10780498,2.30566259,0.00000000,0.99843141,-3.87208668,-5.00000214
1.16500000,0.83068088,3.45987179,-2.22387638,-0.71026494,0.95331889,0.00889318,0.49326020,-4.62927251,0.00000000,-3.12335012,2.85072394,-1.29647411,2.38285099,0.00000000,1.23326968,-4.15025271,-5.00000214
1.17000000,0.84315513,3.44763041,-2.18143841,-0.71037078,0.95330523,0.00884359,0.45557748,-4.61900594,0.00000000,-3.06441013,2.71446131,-1.25292320,2.36192324,0.00000000,1.13776057,-4.08977856,-5.00000214
1.17500000,0.87421217,3.46744131,-2.21605674,-0.71034231,0.95332456,0.00885874,0.45790610,-4.63441737,0.00000000,-3.13253489,2.84482805,-1.33114748,2.38453684,0.00000000,1.22523676,-4.19198446,-5.00000214
1.18000000,0.93149465,3.45228659,-2.19290252,-0.71028532,0.95341956,0.00888188,0.37150687,-4.62369867,0.00000000,-3.11445733,2.89231076,-1.42137243,2.36626750,0.00000000,1.27307166,-4.17648068,-5.00000214
1.18500000,1.01823364,3.40949493,-2.21746082,-0.71038024,0.95357799,0.00895733,0.30841419,-4.57678052,0.00000000,-3.16623436,2.92530878,-1.50375711,2.32358765,0.00000000,1.25277059,-4.20415893,-5.00000214
1.19000000,0.87338787,3.41910125,-2.15277716,-0.71020165,0.95342979,0.00877288,0.38538024,-4.59208612,0.00000000,-3.02904692,2.75377555,-1.32699311,2.34035042,0.00000000,1.19932058,-4.12794490,-5.00000214
1.19500000,0.87143069,3.40988975,-2.13659946,-0.71031297,0.95347623,0.00889105,0.37103912,-4.56804370,0.00000000,-2.97433128,2.60789139,-1.25960176,2.31855539,0.00000000,1.07973571,-4.01989440,-5.00000214
1.20000000,0.85318702,3.41222176,-2.12237579,-0.71031316,0.95346549,0.00888199,0.36687114,-4.57335873,0.00000000,-2.91474415,2.50848827,-1.20710919,2.31742839,0.00000000,1.01313916,-3.92260917,-5.00000214
1.20500000,0.83422465,3.39919456,-2.08366013,-0.71029139,0.95342342,0.00883703,0.34648378,-4.55670950,0.00000000,-2.84655583,2.42216484,-1.16777390,2.30575808,0.00000000,0.97174400,-3.81812960,-5.00000214
1.21000000,0.87516046,3.45718019,-2.16176958,-0.71029296,0.95338957,0.00898204,0.44130332,-4.61665671,0.00000000,-3.13440630,2.85984760,-1.34388779,2.36276052,0.00000000,1.25486421,-4.29668484,-5.00000214
1.21500000,0.94935884,3.46039825,-2.16276261,-0.71035567,0.95348447,0.00904533,0.38300956,-4.61757637,0.00000000,-3.18225104,2.90582682,-1.43079346,2.36875568,0.00000000,1.27680625,-4.30567631,-5.00000214
1.22000000,0.82921993,3.44856708,-2.13741279,-0.71023854,0.95331024,0.00907038,0.45612754,-4.59601339,0.00000000,-3.07411135,2.76196955,-1.29387056,2.35453875,0.00000000,1.24826071,-4.16238477,-5.00000214
1.22500000,0.78826431,3.42741345,-2.08690398,-0.71017727,0.95327047,0.00886190,0.45601903,-4.58095920,0.00000000,-2.99189819,2.54365525,-1.17576625,2.33253149,0.00000000,1.08912738,-4.03280696,-5.00000214
1.23000000,0.87335853,3.43423788,-2.07886406,-0.71031331,0.95337973,0.00903050,0.37349673,-4.57965567,0.00000000,-3.00246687,2.56103458,-1.24268762,2.32621655,0.00000000,1.05844532,-4.00885665,-5.00000214
1.23500000,0.97610142,3.43870845,-2.11749227,-0.71035239,0.95352078,0.00912595,0.31356203,-4.58492755,0.00000000,-3.10109444,2.68517651,-1.37257108,2.33465277,0.00000000,1.09939583,-4.10902425,-5.00000214
1.24000000,0.89761414,3.41020278,-2.05980098,-0.71026203,0.95346951,0.00907673,0.30938006,-4.54903559,0.00000000,-2.94966620,2.54564756,-1.26546683,2.29802384,0.00000000,1.04054046,-3.97310305,-5.00000214
1.24500000,0.75479267,3.41754345,-2.06696022,-0.71010087,0.95329318,0.00905432,0.42539371,-4.55710672,0.00000000,-2.88181849,2.55120128,-1.12710629,2.31155812,0.00000000,1.04899217,-3.94554811,-5.00000214
1.25000000,0.77280584,3.39704227,-2.02912593,-0.71016742,0.95329574,0.00912455,0.40957908,-4.52543197,0.00000000,-2.89319799,2.47587392,-1.10361803,2.28391335,0.00000000,0.97450263,-3.87105129,-5.00000214
1.25500000,0.72841712,3.38348840,-2.01924259,-0.71003496,0.95321143,0.00907526,0.43385957,-4.51136634,0.00000000,-2.85512667,2.39999796,-1.05091040,2.26116139,0.00000000,0.93712983,-3.82988462,-5.00000214
1.26000000,0.82842273,3.46075041,-2.11757243,-0.71009738,0.95329368,0.00920532,0.48555758,-4.59861667,0.00000000,-3.16352923,2.90426525,-1.30414685,2.35070799,0.00000000,1.25643834,-4.21025697,-5.00000214
1.26500000,0.78600908,3.47437074,-2.11565892,-0.71004003,0.95329278,0.00911483,0.53161483,-4.61850371,0.00000000,-3.16620716,2.89241320,-1.26757352,2.37439583,0.00000000,1.26441155,-4.19926127,-5.00000214
1.27000000,0.74941095,3.43020432,-2.04481261,-0.71009585,0.95329541,0.00920114,0.50598932,-4.55779955,0.00000000,-3.05637870,2.70091029,-1.15688235,2.31430438,0.00000000,1.12061579,-4.08576871,-5.00000214
1.27500000,0.74284237,3.40673193,-2.02836519,-0.71008032,0.95331042,0.00920064,0.48147945,-4.53060974,0.00000000,-2.98588621,2.57589438,-1.11834325,2.28940482,0.00000000,1.04556152,-3.98064950,-5.00000214
1.28000000,0.76157932,3.46225391,-2.10743872,-0.71001056,0.95326239,0.00928105,0.55489755,-4.59341953,0.00000000,-3.17081439,2.89427548,-1.23343051,2.35111256,0.00000000,1.23447781,-4.16540978,-5.00000214
1.28500000,0.76677179,3.44270668,-2.08302344,-0.71006232,0.95327412,0.00922149,0.51489151,-4.57357575,0.00000000,-3.08774541,2.72684278,-1.17535664,2.32665677,0.00000000,1.10842091,-4.04349408,-5.00000214
1.29000000,0.77933046,3.43785032,-2.04774229,-0.71005340,0.95325776,0.00918479,0.46061104,-4.56761459,0.00000000,-3.01696044,2.65183387,-1.17607315,2.32769881,0.00000000,1.07260895,-3.94579578,-5.00000214
1.29500000,0.75615917,3.41690381,-2.04053954,-0.71000458,0.95322796,0.00921153,0.44955466,-4.54300133,0.00000000,-2.95812608,2.56002423,-1.11201350,2.30217385,0.00000000,0.99074715,-3.88883768,-5.00000214
1.30000000,0.80210402,3.47879578,-2.12590960,-0.70994850,0.95324383,0.00929769,0.52064040,-4.61333028,0.00000000,-3.19739169,2.92692541,-1.31129554,2.38284747,0.00000000,1.28438242,-4.02305001,-5.00000214
1.30500000,0.80766927,3.45472931,-2.08169130,-0.71001937,0.95323926,0.00932916,0.48066501,-4.58136369,0.00000000,-3.13023662,2.78858413,-1.24366638,2.33763596,0.00000000,1.15042828,-3.98793278,-5.00000214
1.31000000,0.78889890,3.44210911,-2.06353002,-0.71001483,0.95325165,0.00923222,0.46663882,-4.57092444,0.00000000,-3.05766271,2.64032257,-1.16548645,2.33194907,0.00000000,1.03834320,-3.88418966,-5.00000214
1.31500000,0.80336115,3.48170582,-2.11473693,-0.71010607,0.95323786,0.00938497,0.54699614,-4.60370094,0.00000000,-3.23643031,2.95777845,-1.26108878,2.36731309,0.00000000,1.22522910,-4.13809643,-5.00000214
1.32000000,0.78695705,3.44909486,-2.07400873,-0.71005735,0.95325155,0.00935309,0.49537021,-4.56959283,0.00000000,-3.10818260,2.73668529,-1.19184406,2.32876696,0.00000000,1.09982921,-3.97260776,-5.00000214
1.32500000,0.87829316,3.45465986,-2.07936220,-0.71009401,0.95339210,0.00940733,0.42475952,-4.57821142,0.00000000,-3.17175612,2.79559371,-1.28978915,2.33941816,0.00000000,1.10032210,-4.01409476,-5.00000214
1.33000000,0.74877227,3.45183972,-2.06112915,-0.70996922,0.95323017,0.00943266,0.51518089,-4.56842323,0.00000000,-3.07663256,2.73753995,-1.16832971,2.33162220,0.00000000,1.12222950,-3.95297006,-5.00000214
1.33500000,0.72518623,3.44037410,-2.03610266,-0.70986745,0.95321716,0.00938176,0.50642857,-4.55563187,0.00000000,-3.02279967,2.63362152,-1.12484583,2.32017510,0.00000000,1.06846410,-3.86205913,-5.00000214
1.34000000,0.74456381,3.42924086,-2.00810632,-0.70994512,0.95326493,0.00941793,0.46455176,-4.53800760,0.00000000,-2.97308020,2.55427557,-1.10916155,2.30497668,0.00000000,1.00951172,-3.78975499,-5.00000214
1.34500000,0.77859116,3.48562926,-2.10551444,-0.70995294,0.95326001,0.00953171,0.56826059,-4.60046019,0.00000000,-3.24559258,2.98817287,-1.27909386,2.36251804,0.00000000,1.29229370,-4.15891067,-5.00000214
1.35000000,0.82898306,3.48059625,-2.10652264,-0.70990992,0.95335960,0.00954627,0.48696184,-4.59782025,0.00000000,-3.20425868,2.98329178,-1.35453484,2.36162506,0.00000000,1.32280348,-4.15301582,-5.00000214
1.35500000,0.84225751,3.46372585,-2.07831309,-0.70992298,0.95338885,0.00956911,0.44108026,-4.57728937,0.00000000,-3.15401864,2.90659418,-1.34017396,2.33961755,0.00000000,1.25918072,-4.11132397,-5.00000214
1.36000000,0.84922678,3.43254984,-2.02712461,-0.70993796,0.95340069,0.00955997,0.38979449,-4.53933875,0.00000000,-3.07231269,2.70725042,-1.27231634,2.29894234,0.00000000,1.10947635,-4.01901412,-5.00000214
1.36500000,0.82057632,3.48683159,-2.08816354,-0.70980590,0.95332220,0.00955895,0.47538628,-4.60210895,0.00000000,-3.17050490,2.90441172,-1.36114335,2.36911851,0.00000000,1.34432979,-4.14699761,-5.00000214
1.37000000,0.79457617,3.45106164,-2.04262839,-0.70980585,0.95328202,0.00959758,0.42990041,-4.55493259,0.00000000,-3.03320536,2.71386748,-1.26769139,2.31351237,0.00000000,1.21128795,-4.02945540,-5.00000214
1.37500000,0.74520042,3.43517973,-2.01736119,-0.70963974,0.95323461,0.00954091,0.41196760,-4.53775088,0.00000000,-2.92457746,2.57616545,-1.19658601,2.29403766,0.00000000,1.14059175,-3.93089441,-5.00000214
1.38000000,0.72774399,3.45208734,-2.03367268,-0.70965678,0.95323350,0.00963202,0.43607554,-4.55420726,0.00000000,-2.92692169,2.61384415,-1.18108668,2.31234437,0.00000000,1.14594708,-3.95703338,-5.00000214
1.38500000,0.74799070,3.41185782,-1.96578603,-0.70974545,0.95328589,0.00959689,0.38603101,-4.50756775,0.00000000,-2.88484906,2.51626827,-1.14599085,2.26960692,0.00000000,1.05947562,-3.88353697,-5.00000214
1.39000000,0.76800866,3.46356806,-2.04388912,-0.70974879,0.95325689,0.00980868,0.47646367,-4.55590879,0.00000000,-3.10284607,2.89692757,-1.25096842,2.31400599,0.00000000,1.24231108,-4.13996645,-5.00000214
1.39500000,0.73145543,3.47207545,-2.03422460,-0.70969931,0.95321891,0.00984593,0.50388743,-4.55782053,0.00000000,-3.08512964,2.92186649,-1.21470697,2.31684302,0.00000000,1.25076795,-4.17507613,-5.00000214
1.40000000,0.71454003,3.44887070,-1.99093853,-0.70966372,0.95322518,0.00975032,0.46798638,-4.53378384,0.00000000,-2.97997247,2.68732740,-1.15189325,2.29457700,0.00000000,1.14264998,-4.00904400,-5.00000214
1.40500000,0.83278380,3.45309077,-2.01587691,-0.70978514,0.95339555,0.00988691,0.38603081,-4.53481415,0.00000000,-3.06273974,2.75434482,-1.27106525,2.29663866,0.00000000,1.13417490,-4.06291566,-5.00000214
1.41000000,0.74795604,3.43413188,-1.99445835,-0.70953995,0.95331689,0.00984908,0.38180850,-4.51589184,0.00000000,-2.91093343,2.66604021,-1.21436734,2.27713290,0.00000000,1.15950141,-3.95345438,-5.00000214
1.41500000,0.77822803,3.45099533,-2.02481493,-0.70956899,0.95335774,0.00996752,0.38405577,-4.52971800,0.00000000,-2.97696129,2.84696762,-1.30227407,2.29094795,0.00000000,1.28442020,-4.14882705,-5.00000214
1.42000000,0.69257819,3.47731013,-2.04142930,-0.70956517,0.95323596,0.00996951,0.54061338,-4.55837275,0.00000000,-3.08820514,2.89550575,-1.23357532,2.31612672,0.00000000,1.34364886,-4.26583211,-5.00000214
1.42500000,0.68404315,3.45449230,-2.02230292,-0.70956892,0.95323103,0.00997734,0.51216466,-4.52529870,0.00000000,-3.00460267,2.72513752,-1.17809669,2.28732509,0.00000000,1.24722625,-4.13611183,-5.00000214
1.43000000,0.67486911,3.44086495,-1.99682250,-0.70947823,0.95323460,0.00997555,0.46212017,-4.51075220,0.00000000,-2.91206607,2.62121398,-1.15638566,2.27075654,0.00000000,1.20254766,-3.99483762,-5.00000214
1.43500000,0.67062859,3.42101837,-1.96610020,-0.70943280,0.95324287,0.00996496,0.42019959,-4.48994748,0.00000000,-2.83389520,2.54971085,-1.13141804,2.24844132,0.00000000,1.14364431,-3.90626507,-5.00000214
1.44000000,0.76342824,3.43980685,-2.00558482,-0.70947232,0.95333858,0.01005303,0.37183128,-4.51245065,0.00000000,-2.92913181,2.68876405,-1.25267934,2.27469947,0.00000000,1.19063879,-4.01237594,-5.00000214
1.44500000,0.72429202,3.44245729,-1.99953622,-0.70946268,0.95328083,0.01009163,0.39680038,-4.50616639,0.00000000,-2.88699549,2.65994853,-1.22115635,2.27219320,0.00000000,1.21511765,-3.99487812,-5.00000214
1.45000000,0.71652086,3.41633854,-1.97404925,-0.70947815,0.95326588,0.00996659,0.37585138,-4.48770869,0.00000000,-2.83507910,2.56477663,-1.18397751,2.25109753,0.00000000,1.15933645,-3.90745978,-5.00000214
1.45500000,0.70723915,3.40853439,-1.94465569,-0.70947415,0.95325665,0.00996088,0.36274525,-4.47195061,0.00000000,-2.79299499,2.48262826,-1.13160071,2.23719961,0.00000000,1.07350866,-3.85760510,-5.00000214
1.46000000,0.80319168,3.42531538,-1.98917180,-0.70951452,0.95336106,0.01002250,0.30337549,-4.49570623,0.00000000,-2.86912478,2.56476056,-1.24031699,2.26386518,0.00000000,1.08064450,-3.92353066,-5.00000214
1.46500000,0.74387142,3.41704443,-1.95939561,-0.70935549,0.95328541,0.01002573,0.31167884,-4.48494539,0.00000000,-2.78901784,2.49935769,-1.18324950,2.24716699,0.00000000,1.07229409,-3.85968497,-5.00000214
1.47000000,0.72366674,3.38654566,-1.90888094,-0.70939402,0.95323945,0.01002978,0.30483225,-4.44732696,0.00000000,-2.74212943,2.43072159,-1.12091467,2.20834931,0.00000000,1.01015982,-3.82731744,-5.00000214
1.47500000,0.72615319,3.47503514,-2.02205794,-0.70925685,0.95317524,0.01017829,0.45435912,-4.53780758,0.00000000,-3.04350998,2.92339490,-1.28880341,2.30325863,0.00000000,1.33704504,-4.22775350,-5.00000214
1.48000000,0.67936069,3.45809060,-2.01610231,-0.70907691,0.95311423,0.01017243,0.44845754,-4.51620205,0.00000000,-2.94578082,2.74664742,-1.22163344,2.27855526,0.00000000,1.26418528,-4.08883613,-5.00000214
1.48500000,0.78956722,3.45037969,-2.01145408,-0.70931392,0.95325024,0.01025403,0.36020141,-4.50510990,0.00000000,-2.98476734,2.74876873,-1.30324048,2.26442002,0.00000000,1.21754389,-4.10231980,-5.00000214
1.49000000,0.78138572,3.47049462,-2.02447762,-0.70928049,0.95329592,0.01031735,0.37542653,-4.52514794,0.00000000,-3.00726265,2.89088415,-1.34884097,2.28536209,0.00000000,1.33246117,-4.25822397,-5.00000214
1.49500000,0.72419677,3.44181975,-1.99719720,-0.70914959,0.95327718,0.01030970,0.38091606,-4.49301283,0.00000000,-2.90992400,2.70950630,-1.24549561,2.25397360,0.00000000,1.22730269,-4.11349645,-5.00000214
1.50000000,0.71559135,3.42483740,-1.95631364,-0.70917630,0.95329352,0.01036153,0.35216170,-4.46495824,0.00000000,-2.83602113,2.61853047,-1.20157815,2.23066625,0.00000000,1.15848506,-4.01116287,-5.00000214
1.50500000,0.68381802,3.43791833,-1.94353195,-0.70912749,0.95325443,0.01028188,0.36528837,-4.48482358,0.00000000,-2.79055423,2.51419318,-1.13824437,2.24935465,0.00000000,1.09891238,-3.91496965,-5.00000214
1.51000000,0.69418020,3.49077562,-2.03428905,-0.70913797,0.95318262,0.01044605,0.50052572,-4.53447091,0.00000000,-3.06946930,2.94415532,-1.25532448,2.29855726,0.00000000,1.33085596,-4.23663332,-5.00000214
1.51500000,0.71861767,3.47133361,-1.98878142,-0.70918676,0.95323363,0.01043158,0.43994975,-4.51342574,0.00000000,-3.01008837,2.83656613,-1.24795656,2.27426782,0.00000000,1.26688739,-4.16104411,-5.00000214
1.52000000,0.66776266,3.45411151,-1.95297656,-0.70913670,0.95323864,0.01045854,0.43376144,-4.48998694,0.00000000,-2.91323099,2.68009244,-1.15916068,2.25631317,0.00000000,1.18579215,-4.03268511,-5.00000214
1.52500000,0.67255236,3.46865319,-1.99601053,-0.70907807,0.95322594,0.01052200,0.46488025,-4.50557064,0.00000000,-2.99417639,2.91116902,-1.20590443,2.27265735,0.00000000,1.26460125,-4.18469315,-5.00000214
1.53000000,0.64967267,3.44816276,-1.96283152,-0.70906586,0.95319636,0.01057836,0.44992603,-4.47463236,0.00000000,-2.90806802,2.71083144,-1.12798796,2.23865353,0.00000000,1.15410814,-4.05942962,-5.00000214
1.53500000,0.62329707,3.44640518,-1.93084878,-0.70900251,0.95317741,0.01051143,0.44118051,-4.47114438,0.00000000,-2.83824135,2.58069566,-1.06584220,2.23534363,0.00000000,1.08097352,-3.96491026,-5.00000214
1.54000000,0.64460950,3.50039291,-2.01307825,-0.70896777,0.95312585,0.01062863,0.52790310,-4.52611024,0.00000000,-3.04451717,2.92218498,-1.18967922,2.29674201,0.00000000,1.28759136,-4.09943968,-5.00000214
1.54500000,0.64435696,3.46853034,-1.97119165,-0.70891567,0.95316542,0.01066350,0.46404262,-4.48727358,0.00000000,-2.93929257,2.77791237,-1.15984761,2.25407818,0.00000000,1.21174154,-3.99000555,-5.00000214
1.55000000,0.65105483,3.48754128,-2.00967022,-0.70896686,0.95319037,0.01077742,0.51316190,-4.50529215,0.00000000,-3.05108984,2.95115988,-1.21505655,2.27165879,0.00000000,1.31512752,-4.20402838,-5.00000214
1.55500000,0.65088186,3.45870533,-1.95771144,-0.70896679,0.95323323,0.01074636,0.45420408,-4.47438082,0.00000000,-2.94718558,2.79269738,-1.18083254,2.24254258,0.00000000,1.24303184,-4.07743966,-5.00000214
1.56000000,0.62543762,3.44185672,-1.93529908,-0.70890540,0.95320385,0.01073900,0.43752010,-4.45245330,0.00000000,-2.86564141,2.65483039,-1.11763448,2.22287246,0.00000000,1.16186819,-3.98712697,-5.00000214
1.56500000,0.60544346,3.43519709,-1.92303072,-0.70890093,0.95311446,0.01077187,0.44825828,-4.43550433,0.00000000,-2.82457862,2.53829285,-1.03985651,2.20607525,0.00000000,1.05105010,-3.95085466,-5.00000214
1.57000000,0.64845242,3.48378870,-2.00339086,-0.70887143,0.95312877,0.01086485,0.50466692,-4.49103279,0.00000000,-3.02927375,2.93277459,-1.19087511,2.25661865,0.00000000,1.26826283,-4.16437711,-5.00000214
1.57500000,0.64850722,3.45375135,-1.96363968,-0.70883575,0.95317143,0.01089024,0.44552476,-4.45473963,0.00000000,-2.93435964,2.79937894,-1.15665246,2.21623949,0.00000000,1.18720487,-4.07804130,-5.00000214
1.58000000,0.66881889,3.46782982,-2.00145299,-0.70884706,0.95323978,0.01098261,0.46450886,-4.46974202,0.00000000,-3.01009435,2.88998613,-1.21217854,2.23696915,0.00000000,1.25212601,-4.15050694,-5.00000214
1.58500000,0.66136387,3.43971145,-1.96724137,-0.70878653,0.95327301,0.01093791,0.41362480,-4.44158457,0.00000000,-2.90799348,2.74266011,-1.17090232,2.20973575,0.00000000,1.17191513,-4.03367323,-5.00000214
1.59000000,0.64424861,3.43081552,-1.96456794,-0.70876508,0.95321566,0.01102456,0.41000750,-4.42335925,0.00000000,-2.85910969,2.67616146,-1.12719066,2.18675374,0.00000000,1.12332124,-3.99754899,-5.00000214
1.59500000,0.63165441,3.43775201,-1.95950084,-0.70873447,0.95316886,0.01092925,0.40809764,-4.43793812,0.00000000,-2.81421429,2.56483220,-1.09342479,2.20686393,0.00000000,1.07584237,-3.90902957,-5.00000214
1.60000000,0.68387999,3.47828040,-2.00853329,-0.70870718,0.95312407,0.01101126,0.44857467,-4.48020483,0.00000000,-3.02441201,2.96427310,-1.24983277,2.24184389,0.00000000,1.28991385,-4.28349145,-5.00000214
1.60500000,0.68548986,3.45743758,-1.99572527,-0.70870342,0.95314294,0.01103628,0.40578544,-4.45442684,0.00000000,-2.94033745,2.81418623,-1.22807678,2.22044151,0.00000000,1.23460789,-4.12206670,-5.00000214
1.61000000,0.68038317,3.42347396,-1.95632848,-0.70862896,0.95317916,0.01108894,0.35473460,-4.41181451,0.00000000,-2.85578093,2.71020911,-1.20732770,2.17322906,0.00000000,1.18286940,-4.03059854,-5.00000214
1.61500000,0.72158981,3.47634546,-2.06237221,-0.70861516,0.95322200,0.01116323,0.40932386,-4.47471609,0.00000000,-3.02427341,2.95184265,-1.33880078,2.24950655,0.00000000,1.34797956,-4.03149718,-5.00000214
1.62000000,0.72731328,3.44355112,-2.02103226,-0.70864536,0.95322974,0.01118132,0.36272453,-4.43539396,0.00000000,-2.94160819,2.76940601,-1.27610821,2.20231370,0.00000000,1.21133690,-3.94348449,-5.00000214
1.62500000,0.71164260,3.43485102,-2.01369805,-0.70865195,0.95321596,0.01122145,0.34545252,-4.41931572,0.00000000,-2.86053818,2.65016720,-1.21922266,2.18779486,0.00000000,1.12947191,-3.87776531,-5.00000214
1.63000000,0.70236936,3.42863840,-1.98990555,-0.70857051,0.95326205,0.01119632,0.30411233,-4.41561731,0.00000000,-2.78548232,2.62047667,-1.19624765,2.18294606,0.00000000,1.09031070,-3.84170235,-5.00000214
1.63500000,0.70625514,3.47977215,-2.06860331,-0.70858799,0.95323918,0.01138148,0.41232126,-4.46695055,0.00000000,-2.99263880,2.92957397,-1.29476916,2.23605157,0.00000000,1.28709149,-4.04405539,-5.00000214
1.64000000,0.69551757,3.47548714,-2.06480492,-0.70853274,0.95319577,0.01146030,0.42353412,-4.45568405,0.00000000,-3.00099971,2.94671479,-1.29906656,2.21613976,0.00000000,1.32015643,-4.24598242,-5.00000214
1.64500000,0.67892089,3.46365767,-2.01737924,-0.70855101,0.95314775,0.01140803,0.39771758,-4.43971204,0.00000000,-2.91397760,2.80819503,-1.24803510,2.20832667,0.00000000,1.25903535,-4.11838480,-5.00000214
1.65000000,0.69026291,3.47084847,-2.04315213,-0.70850908,0.95311308,0.01153897,0.44500761,-4.43576999,0.00000000,-3.03638891,2.93767607,-1.32102201,2.20391183,0.00000000,1.38469003,-4.31850991,-5.00000214
1.65500000,0.77527064,3.47133560,-2.07234291,-0.70852939,0.95325797,0.01156883,0.37579650,-4.44254282,0.00000000,-3.08579397,2.99944434,-1.42302863,2.21165420,0.00000000,1.39142893,-4.34930528,-5.00000214
1.66000000,0.68794804,3.44405101,-2.01557882,-0.70849094,0.95322752,0.01156338,0.37205859,-4.40912554,0.00000000,-2.89853768,2.73145323,-1.27349448,2.18233990,0.00000000,1.26930602,-4.10280037,-5.00000214
1.66500000,0.71443632,3.45455164,-2.03285137,-0.70841385,0.95325530,0.01170777,0.35215058,-4.41412385,0.00000000,-2.93860241,2.92732054,-1.34688882,2.18607055,0.00000000,1.35213194,-4.21266794,-5.00000214
1.67000000,0.65899594,3.43075630,-1.99687176,-0.70834138,0.95318215,0.01168785,0.37309008,-4.38330613,0.00000000,-2.86770623,2.75652752,-1.23540536,2.15201417,0.00000000,1.24461464,-4.09845927,-5.00000214
1.67500000,0.61921792,3.41798850,-1.97676206,-0.70827820,0.95313329,0.01167919,0.38435943,-4.36743422,0.00000000,-2.80324069,2.62822361,-1.15964747,2.13545391,0.00000000,1.16964795,-3.98604845,-5.00000214
1.68000000,0.62504154,3.40480671,-1.96934937,-0.70827709,0.95313353,0.01172333,0.34669716,-4.34479404,0.00000000,-2.74147099,2.56112851,-1.14426940,2.11497345,0.00000000,1.12292113,-3.91028169,-5.00000214
1.68500000,0.63833555,3.44354109,-2.03716825,-0.70822173,0.95308190,0.01183099,0.40625841,-4.38816907,0.00000000,-2.89851862,2.95611432,-1.28695464,2.15508070,0.00000000,1.38227936,-4.20002061,-5.00000214
1.69000000,0.74167756,3.45482798,-2.06115778,-0.70831292,0.95321267,0.01190928,0.35262401,-4.40424250,0.00000000,-3.01162239,3.05945933,-1.40498756,2.16745138,0.00000000,1.40074552,-4.29174935,-5.00000214
1.69500000,0.68903864,3.43947874,-2.02145796,-0.70827576,0.95313354,0.01192755,0.35937508,-4.38519602,0.00000000,-2.91659432,2.86859425,-1.30767591,2.14884742,0.00000000,1.31551480,-4.15501496,-5.00000214
1.70000000,0.64306253,3.43151924,-1.98858992,-0.70823031,0.95312816,0.01189595,0.37424668,-4.37053311,0.00000000,-2.84780258,2.71795936,-1.22121381,2.13968648,0.00000000,1.23568489,-4.04573991,-5.00000214
1.70500000,0.60676276,3.47973602,-2.02340420,-0.70825731,0.95302226,0.01198016,0.49245225,-4.41496085,0.00000000,-2.99474188,2.96951983,-1.21178241,2.17952012,0.00000000,1.32003833,-4.18727338,-5.00000214
1.71000000,0.59009065,3.45176491,-1.99759453,-0.70820889,0.95304739,0.01187925,0.44665929,-4.38956656,0.00000000,-2.87432619,2.78355790,-1.16250397,2.15662438,0.00000000,1.23663571,-4.02230758,-5.00000214
1.71500000,0.62231947,3.46659135,-2.02805986,-0.70818680,0.95308973,0.01201113,0.43019777,-4.40175727,0.00000000,-2.92085825,2.94649084,-1.22616816,2.16299514,0.00000000,1.27328916,-4.15821904,-5.00000214
1.72000000,0.60080726,3.45635639,-2.03350946,-0.70824414,0.95311200,0.01206198,0.48156602,-4.39086890,0.00000000,-2.97748694,2.91554238,-1.19657871,2.15679684,0.00000000,1.26568303,-4.17419590,-5.00000214
1.72500000,0.62328888,3.44179205,-2.02110024,-0.70825604,0.95310501,0.01220184,0.45223409,-4.36565194,0.00000000,-2.96891524,2.89674026,-1.20080562,2.12932109,0.00000000,1.23617269,-4.16748354,-5.00000214
1.73000000,0.56648869,3.46347597,-2.02682479,-0.70814623,0.95297552,0.01216522,0.53153082,-4.39041388,0.00000000,-3.01022931,2.99542705,-1.18539254,2.15260680,0.00000000,1.33496069,-4.30926736,-5.00000214
1.73500000,0.55341572,3.44785779,-1.99231622,-0.70811473,0.95294351,0.01220159,0.48289795,-4.36225802,0.00000000,-2.88200399,2.77263575,-1.12374775,2.12435756,0.00000000,1.22539504,-4.13602793,-5.00000214
1.74000000,0.54749521,3.43794559,-1.96993461,-0.70808583,0.95297526,0.01216726,0.43417276,-4.35396277,0.00000000,-2.77515032,2.65478766,-1.09760904,2.11386600,0.00000000,1.17225870,-4.00138263,-5.00000214
1.74500000,0.59267456,3.45714841,-2.00428343,-0.70808527,0.95306630,0.01227228,0.41874433,-4.37169111,0.00000000,-2.85060886,2.81249260,-1.18575428,2.13599439,0.00000000,1.24399504,-4.08437710,-5.00000214
1.75000000,0.64431650,3.45451719,-2.01626477,-0.70811505,0.95317831,0.01232476,0.38622361,-4.36964493,0.00000000,-2.90001063,2.86272550,-1.24487590,2.13668747,0.00000000,1.25519372,-4.11653769,-5.00000214
1.75500000,0.58155908,3.40407145,-1.96825221,-0.70801132,0.95310923,0.01237530,0.38077798,-4.30829301,0.00000000,-2.77737374,2.70889546,-1.13986037,2.06857738,0.00000000,1.16806817,-4.05478036,-5.00000214
1.76000000,0.53763622,3.42050666,-1.99615968,-0.70795995,0.95302246,0.01228533,0.42447100,-4.33354580,0.00000000,-2.74094527,2.66502550,-1.08825187,2.09583679,0.00000000,1.15187071,-4.01386810,-5.00000214
1.76500000,0.51999387,3.47856453,-2.02224275,-0.70796871,0.95296629,0.01244199,0.57598803,-4.38087975,0.00000000,-3.02128866,2.97815739,-1.17647209,2.14717415,0.00000000,1.39316119,-4.32113224,-5.00000214
1.77000000,0.51425016,3.45105624,-2.01345920,-0.70790882,0.95296132,0.01249784,0.51553210,-4.34792419,0.00000000,-2.89307101,2.83795437,-1.13259651,2.11015229,0.00000000,1.29220650,-4.19106076,-5.00000214
1.77500000,0.51797675,3.46610848,-2.02191704,-0.70791545,0.95296440,0.01249681,0.54608981,-4.36946441,0.00000000,-2.97057792,2.98103205,-1.13848852,2.12904708,0.00000000,1.30275140,-4.26152956,-5.00000214
1.78000000,0.57319989,3.46339569,-2.01166800,-0.70791541,0.95303459,0.01257207,0.49244752,-4.36499255,0.00000000,-2.99673396,2.99610066,-1.19128031,2.12356308,0.00000000,1.29076399,-4.27088794,-5.00000214
1.78500000,0.53596660,3.42786299,-1.98852508,-0.70784604,0.95301458,0.01258468,0.45916811,-4.31988027,0.00000000,-2.85283604,2.79077220,-1.09920476,2.08048432,0.00000000,1.16897771,-4.10534299,-5.00000214
1.79000000,0.52499095,3.40992593,-1.96948728,-0.70781719,0.95300417,0.01255426,0.43033757,-4.29981216,0.00000000,-2.77156233,2.69487697,-1.06068774,2.06135542,0.00000000,1.10855170,-4.01464142,-5.00000214
1.79500000,0.47779071,3.40135426,-1.95161100,-0.70768982,0.95295075,0.01251904,0.42980248,-4.29033510,0.00000000,-2.68666608,2.60690890,-0.99577694,2.04813800,0.00000000,1.05885691,-3.94713907,-5.00000214
1.80000000,0.43830440,3.39344289,-1.94403984,-0.70773180,0.95294417,0.01260570,0.44181325,-4.27374961,0.00000000,-2.60956994,2.49027756,-0.96443954,2.03901370,0.00000000,1.07386358,-3.82239040,-5.00000214
1.80500000,0.45564138,3.38654354,-1.91700400,-0.70767377,0.95294690,0.01263809,0.40676043,-4.26518962,0.00000000,-2.60332190,2.49075075,-0.97518957,2.02783332,0.00000000,1.05399683,-3.84156048,-5.00000214
1.81000000,0.52384795,3.45702448,-2.01726692,-0.70763660,0.95296454,0.01273377,0.49479741,-4.34485244,0.00000000,-2.93069090,2.99115689,-1.19793540,2.10826516,0.00000000,1.37231762,-4.27031184,-5.00000214
1.81500000,0.49800838,3.43658467,-1.98030934,-0.70758215,0.95293527,0.01270221,0.47380769,-4.31796510,0.00000000,-2.83608391,2.82149501,-1.13280508,2.08720739,0.00000000,1.28766777,-4.13889551,-5.00000214
1.82000000,0.50537193,3.47075477,-2.02216213,-0.70760887,0.95291369,0.01275428,0.52664168,-4.35429509,0.00000000,-2.94508328,2.98646168,-1.16053658,2.11603792,0.00000000,1.33431627,-4.26323046,-5.00000214
1.82500000,0.49873089,3.44232205,-1.98403309,-0.70754575,0.95293584,0.01271036,0.46796043,-4.32417282,0.00000000,-2.83262033,2.82437174,-1.13021199,2.08878392,0.00000000,1.27059344,-4.10556234,-5.00000214
1.83000000,0.44547188,3.42877158,-1.97549403,-0.70749219,0.95292353,0.01277533,0.48327377,-4.30560882,0.00000000,-2.74636466,2.70546641,-1.04573072,2.06959068,0.00000000,1.19765039,-4.02207310,-5.00000214
1.83500000,0.46697402,3.40644687,-1.97183443,-0.70744039,0.95298416,0.01289449,0.44737188,-4.28319141,0.00000000,-2.73438300,2.68065105,-1.05271504,2.03670138,0.00000000,1.15805591,-3.97942017,-5.00000214
1.84000000,0.45024147,3.41956469,-1.96247238,-0.70741783,0.95293963,0.01281262,0.45557891,-4.29389684,0.00000000,-2.70596755,2.64133023,-1.00647390,2.05291603,0.00000000,1.10421486,-3.92303761,-5.00000214
1.84500000,0.44784753,3.41850257,-1.94400243,-0.70737833,0.95294933,0.01273697,0.43651459,-4.29302902,0.00000000,-2.67265775,2.58667241,-0.97190763,2.05680580,0.00000000,1.02875382,-3.83277925,-5.00000214
1.85000000,0.45631425,3.41612168,-1.95187871,-0.70735229,0.95296413,0.01284304,0.42695400,-4.28412770,0.00000000,-2.67591786,2.60735453,-0.98254602,2.04848092,0.00000000,1.02332887,-3.81820262,-5.00000214
1.85500000,0.46857254,3.39856835,-1.92194550,-0.70735931,0.95299562,0.01294076,0.38583457,-4.26098498,0.00000000,-2.64209148,2.58006662,-0.95351389,2.01381960,0.00000000,0.94074061,-3.77919181,-5.00000214
1.86000000,0.43300759,3.39388538,-1.92094182,-0.70734300,0.95297749,0.01304860,0.42188821,-4.25135158,0.00000000,-2.63282856,2.59713496,-0.93232625,2.01092538,0.00000000,0.96298457,-3.78946838,-5.00000214
1.86500000,0.47048802,3.45752135,-1.98994399,-0.70729522,0.95295366,0.01313963,0.52397512,-4.32039190,0.00000000,-2.92513659,3.00661292,-1.07371749,2.07821418,0.00000000,1.18376042,-4.13026828,-5.00000214
1.87000000,0.42787138,3.43427004,-1.94701544,-0.70721565,0.95290633,0.01310671,0.51866469,-4.28986165,0.00000000,-2.83235674,2.84049381,-0.99406220,2.04811051,0.00000000,1.10954247,-4.01730935,-5.00000214
1.87500000,0.42687238,3.42405398,-1.94280622,-0.70715729,0.95286628,0.01306853,0.48236571,-4.27666477,0.00000000,-2.75562849,2.74957062,-1.00502469,2.04246404,0.00000000,1.11549051,-3.91948591,-5.00000214
1.88000000,0.44861353,3.46496433,-2.00266843,-0.70713767,0.95289699,0.01320899,0.54738029,-4.31781790,0.00000000,-2.93614577,3.02990554,-1.13572584,2.07959955,0.00000000,1.34017039,-4.23883539,-5.00000214
1.88500000,0.43223761,3.44322375,-2.00541775,-0.70705575,0.95293714,0.01324081,0.52552026,-4.29852248,0.00000000,-2.87133744,2.93150307,-1.10746823,2.05698085,0.00000000,1.29336231,-4.14791788,-5.00000214
1.89000000,0.41863367,3.41582718,-1.96337071,-0.70693190,0.95293960,0.01323053,0.47864248,-4.26711248,0.00000000,-2.78277243,2.83153666,-1.08166630,2.02893794,0.00000000,1.25070339,-4.03733937,-5.00000214
1.89500000,0.46927722,3.44901638,-2.03105655,-0.70692220,0.95294410,0.01344650,0.49357037,-4.29528094,0.00000000,-2.90104803,3.02172805,-1.19180052,2.05507694,0.00000000,1.36737021,-4.22537971,-5.00000214
1.90000000,0.43544053,3.43121710,-1.98165638,-0.70679334,0.95282863,0.01330417,0.47754996,-4.27659072,0.00000000,-2.81693543,2.87927242,-1.12440207,2.03654275,0.00000000,1.29406254,-4.12859147,-5.00000214
1.90500000,0.41979231,3.39335444,-1.93805378,-0.70666343,0.95284766,0.01329019,0.40992803,-4.23987262,0.00000000,-2.67997588,2.73241528,-1.08851924,1.98972534,0.00000000,1.23411986,-3.99984804,-5.00000214
1.91000000,0.41789306,3.39879684,-1.94448995,-0.70660481,0.95287098,0.01328968,0.38254190,-4.24159989,0.00000000,-2.61477893,2.64739897,-1.08094960,2.00552269,0.00000000,1.20574971,-3.88791801,-5.00000214
1.91500000,0.42338132,3.41968649,-1.96415490,-0.70660267,0.95291195,0.01337258,0.40515104,-4.26280697,0.00000000,-2.67847151,2.75850740,-1.10134139,2.02907978,0.00000000,1.23036942,-3.96683920,-5.00000214
1.92000000,0.42533508,3.40089075,-1.94192523,-0.70665490,0.95295187,0.01342959,0.41713825,-4.24203326,0.00000000,-2.72045279,2.82324006,-1.09420985,2.00270504,0.00000000,1.22848937,-4.02432555,-5.00000214
1.92500000,0.38543870,3.37565229,-1.94084321,-0.70649284,0.95289576,0.01347213,0.41955015,-4.20770751,0.00000000,-2.64619730,2.69495017,-1.03642401,1.96879262,0.00000000,1.16850823,-3.92500894,-5.00000214
1.93000000,0.39012527,3.38312846,-1.89989923,-0.70655421,0.95291830,0.01342750,0.38980439,-4.21368951,0.00000000,-2.59218084,2.61433608,-1.00309671,1.97680054,0.00000000,1.11567496,-3.84070397,-5.00000214
1.93500000,0.38138583,3.42615808,-2.03194552,-0.70617968,0.95284167,0.01366364,0.48881576,-4.25890565,0.00000000,-2.80298713,2.97734223,-1.17310574,2.01041959,0.00000000,1.41855927,-4.22588802,-5.00000214
1.94000000,0.42754391,3.41405543,-1.96170193,-0.70627833,0.95287311,0.01365494,0.38506933,-4.23687849,0.00000000,-2.69338652,2.80332339,-1.16642555,1.99954896,0.00000000,1.32102515,-4.04924884,-5.00000214
1.94500000,0.42325612,3.39813819,-1.97367921,-0.70610473,0.95288513,0.01367922,0.37027717,-4.22714435,0.00000000,-2.68492988,2.80757277,-1.17495413,1.98553789,0.00000000,1.31341428,-4.04744298,-5.00000214
1.95000000,0.45294326,3.40042794,-1.94444251,-0.70618329,0.95291626,0.01372804,0.30957009,-4.21846004,0.00000000,-2.61773761,2.71777777,-1.16773157,1.98368623,0.00000000,1.24979091,-3.95889764,-5.00000214
1.95500000,0.40528274,3.38832287,-1.97179180,-0.70605248,0.95286476,0.01374506,0.33216551,-4.20590844,0.00000000,-2.55946451,2.69842702,-1.12570193,1.96463289,0.00000000,1.24187028,-3.95556875,-5.00000214
1.96000000,0.41665744,3.38908296,-1.93196266,-0.70608081,0.95290822,0.01376225,0.29559670,-4.19717811,0.00000000,-2.51755141,2.63011309,-1.11509973,1.95788029,0.00000000,1.20059232,-3.88839722,-5.00000214
1.96500000,0.42546685,3.43625522,-2.00091750,-0.70600982,0.95288157,0.01380951,0.40438238,-4.25226506,0.00000000,-2.76431364,3.00056770,-1.21230391,2.01494699,0.00000000,1.38094252,-4.16564546,-5.00000214
1.97000000,0.38767567,3.40122851,-1.96337114,-0.70591802,0.95288935,0.01389139,0.37745385,-4.21347563,0.00000000,-2.65073958,2.80887004,-1.13744127,1.96823665,0.00000000,1.29418480,-4.01351877,-5.00000214
1.97500000,0.36993480,3.38558499,-1.94901356,-0.70580621,0.95287045,0.01390699,0.34922188,-4.18857699,0.00000000,-2.56472709,2.68038045,-1.09340830,1.95518875,0.00000000,1.22085102,-3.86683449,-5.00000214
1.98000000,0.38530561,3.41509929,-1.99853932,-0.70573290,0.95278576,0.01394670,0.41552803,-4.22092581,0.00000000,-2.73934331,2.99317991,-1.18079031,1.98779711,0.00000000,1.37194400,-4.13176269,-5.00000214
1.98500000,0.39607929,3.44225754,-2.00402065,-0.70572806,0.95276274,0.01401154,0.38725688,-4.25886346,0.00000000,-2.66712582,2.64432304,-1.16630287,2.01227141,0.00000000,1.29841961,-3.94294301,-5.00000214
1.99000000,0.45121985,3.41993770,-1.99355531,-0.70574093,0.95290884,0.01394739,0.32570060,-4.25679952,0.00000000,-2.68380346,2.62172945,-1.21165687,1.99197393,0.00000000,1.27498394,-3.95292706,-5.00000214
1.99500000,0.39823664,3.37473768,-1.97868785,-0.70559292,0.95290650,0.01405064,0.30202680,-4.16810926,0.00000000,-2.55483426,2.64355519,-1.15435561,1.93749911,0.00000000,1.24995093,-3.89815253,-5.00000214
2.00000000,0.37530514,3.37923255,-1.94315296,-0.70546089,0.95290853,0.01404907,0.27765384,-4.17117944,0.00000000,-2.48106485,2.60309778,-1.12582927,1.94360616,0.00000000,1.22167705,-3.81663534,-5.00000214
2.00500000,0.37042708,3.42513874,-2.00468124,-0.70544152,0.95284186,0.01419303,0.39336389,-4.21596719,0.00000000,-2.70538563,2.99447264,-1.20820391,1.98159526,0.00000000,1.41534139,-4.18898176,-5.00000214
2.01000000,0.32240703,3.41565418,-1.98599241,-0.70534506,0.95275536,0.01421647,0.40829488,-4.19780034,0.00000000,-2.63351185,2.87072765,-1.13263824,1.96732126,0.00000000,1.35900450,-4.08975021,-5.00000214
2.01500000,0.29224109,3.42837071,-2.01912952,-0.70520244,0.95267081,0.01425249,0.46774672,-4.21097618,0.00000000,-2.71088482,3.02042531,-1.14168635,1.97695545,0.00000000,1.41655618,-4.16836214,-5.00000214
2.02000000,0.34749731,3.43765057,-2.02347502,-0.70522941,0.95279026,0.01428272,0.42091044,-4.22717838,0.00000000,-2.74966364,3.03823711,-1.19689213,1.98875496,0.00000000,1.40460958,-4.18076401,-5.00000214
2.02500000,0.33528893,3.44199770,-2.02927051,-0.70516168,0.95276015,0.01442607,0.42842906,-4.21851176,0.00000000,-2.74133968,3.07036033,-1.20257385,1.98735628,0.00000000,1.43322076,-4.18548884,-5.00000214
2.03000000,0.34839222,3.44670648,-2.04520374,-0.70513784,0.95279321,0.01456541,0.43121401,-4.21463121,0.00000000,-2.77596419,3.11434481,-1.22670834,1.98656885,0.00000000,1.44922088,-4.22272352,-5.00000214
2.03500000,0.30938049,3.42925768,-1.99920968,-0.70498551,0.95276529,0.01446934,0.39963485,-4.19493188,0.00000000,-2.64276630,2.88326564,-1.14604036,1.97146445,0.00000000,1.34969163,-4.02527700,-5.00000214
2.04000000,0.26090909,3.39197582,-1.97366179,-0.70481779,0.95267924,0.01442881,0.38427779,-4.14950135,0.00000000,-2.51864617,2.72673874,-1.06675062,1.92128300,0.00000000,1.26691190,-3.90858084,-5.00000214
2.04500000,0.26826497,3.38167651,-1.95835827,-0.70483076,0.95267121,0.01449747,0.34310955,-4.13300748,0.00000000,-2.45255825,2.66765764,-1.04356679,1.90538276,0.00000000,1.21457509,-3.85286980,-5.00000214
2.05000000,0.27191555,3.38209575,-1.94218607,-0.70474938,0.95270663,0.01451501,0.31488363,-4.13408445,0.00000000,-2.42539410,2.65414971,-1.05174731,1.90762191,0.00000000,1.20524803,-3.82168422,-5.00000214
2.05500000,0.27834564,3.36320515,-1.93200183,-0.70468469,0.95272632,0.01457972,0.26818964,-4.11190488,0.00000000,-2.36267736,2.62304497,-1.05470432,1.87913130,0.00000000,1.17845161,-3.81035367,-5.00000214
2.06000000,0.27623616,3.36940255,-1.93891134,-0.70461211,0.95273920,0.01460873,0.26449707,-4.11641970,0.00000000,-2.35586318,2.62212355,-1.05348667,1.89190946,0.00000000,1.17271851,-3.80489251,-5.00000214
2.06500000,0.25756719,3.40419905,-1.99091237,-0.70442914,0.95266618,0.01456402,0.38759948,-4.16054953,0.00000000,-2.58885300,2.98724708,-1.13414785,1.93498555,0.00000000,1.37078982,-4.12453566,-5.00000214
2.07000000,0.25302736,3.40551618,-2.02007424,-0.70443162,0.95267184,0.01469827,0.37278094,-4.15248587,0.00000000,-2.51287558,2.81772283,-1.10369545,1.92614664,0.00000000,1.31777244,-3.94991049,-5.00000214
2.07500000,0.22997805,3.37954673,-1.99943302,-0.70422999,0.95258095,0.01473187,0.33975712,-4.11891043,0.00000000,-2.42614186,2.71569094,-1.07420315,1.89345686,0.00000000,1.26273190,-3.85549691,-5.00000214
2.08000000,0.24017156,3.35885132,-1.96942714,-0.70418671,0.95258804,0.01466939,0.27848824,-4.10269191,0.00000000,-2.34665556,2.64246908,-1.06026001,1.87152286,0.00000000,1.20881193,-3.79017800,-5.00000214
2.08500000,0.24180554,3.34759524,-1.96272836,-0.70402935,0.95262029,0.01475691,0.24328926,-4.08068290,0.00000000,-2.30574394,2.60364650,-1.07900574,1.85941667,0.00000000,1.20671036,-3.73525193,-5.00000214
2.09000000,0.25664908,3.33966478,-1.95222131,-0.70397008,0.95263545,0.01480708,0.20211011,-4.06724190,0.00000000,-2.26288801,2.55023952,-1.08809669,1.84954918,0.00000000,1.18108288,-3.66198476,-5.00000214
2.09500000,0.32067718,3.41750772,-2.06264310,-0.70393073,0.95266239,0.01500788,0.29840048,-4.14590572,0.00000000,-2.59726512,3.07125233,-1.29545836,1.92540143,0.00000000,1.47686874,-4.13879710,-5.00000214
2.10000000,0.28006150,3.38785952,-2.02251449,-0.70384115,0.95260311,0.01499015,0.28735188,-4.11114451,0.00000000,-2.49637476,2.89309326,-1.21374978,1.88628152,0.00000000,1.39171188,-4.02222401,-5.00000214
2.10500000,0.26356447,3.38012892,-1.99203832,-0.70372158,0.95263613,0.01500425,0.23354440,-4.09881370,0.00000000,-2.37437870,2.75757292,-1.18227397,1.87583638,0.00000000,1.33610525,-3.89857724,-5.00000214
2.11000000,0.25633343,3.42736917,-2.03650922,-0.70373885,0.95264695,0.01510112,0.33221038,-4.15112606,0.00000000,-2.55933331,3.04556477,-1.21168154,1.93219464,0.00000000,1.42039010,-4.04103386,-5.00000214
2.11500000,0.21819229,3.39858366,-2.01079192,-0.70360122,0.95256174,0.01516062,0.33832350,-4.11316140,0.00000000,-2.50955251,2.97695828,-1.15883065,1.88997737,0.00000000,1.38544255,-4.00915285,-5.00000214
2.12000000,0.21603839,3.38199308,-2.00702883,-0.70351206,0.95259369,0.01524694,0.30037340,-4.08614842,0.00000000,-2.42809696,2.84812081,-1.14067060,1.86914671,0.00000000,1.33232693,-3.89317258,-5.00000214
2.12500000,0.19252725,3.34193202,-1.99269936,-0.70333525,0.95249952,0.01516466,0.27700297,-4.04178043,0.00000000,-2.34716819,2.72915729,-1.09023253,1.82239500,0.00000000,1.25490410,-3.83974158,-5.00000214
2.13000000,0.24888842,3.36750417,-1.99437620,-0.70337155,0.95259374,0.01520490,0.22208607,-4.07202409,0.00000000,-2.36936530,2.74888931,-1.14455237,1.85329541,0.00000000,1.24059641,-3.85685681,-5.00000214
2.13500000,0.26529197,3.40729987,-2.07184108,-0.70332086,0.95262529,0.01530808,0.28912760,-4.11887377,0.00000000,-2.53889758,3.02278356,-1.25787460,1.89722446,0.00000000,1.42589300,-4.06570766,-5.00000214
2.14000000,0.22681208,3.37439925,-2.00047426,-0.70318169,0.95261864,0.01532964,0.24686618,-4.07354371,0.00000000,-2.40605479,2.87250308,-1.19640457,1.85722354,0.00000000,1.37120105,-3.92727440,-5.00000214
2.14500000,0.18507381,3.39749337,-2.02023721,-0.70305663,0.95255975,0.01536338,0.29481250,-4.09822934,0.00000000,-2.41982295,2.92726117,-1.16864406,1.88346749,0.00000000,1.39735275,-3.97740528,-5.00000214
2.15000000,0.17984497,3.36849349,-1.99919896,-0.70293717,0.95251642,0.01534665,0.25948488,-4.06398330,0.00000000,-2.34962810,2.80977806,-1.12890696,1.84928485,0.00000000,1.31201618,-3.88804585,-5.00000214
2.15500000,0.16990048,3.35905243,-1.98311549,-0.70276464,0.95250335,0.01525775,0.20810570,-4.05463998,0.00000000,-2.24816148,2.71417584,-1.11966935,1.83955850,0.00000000,1.27982214,-3.77772334,-5.00000214
2.16000000,0.22721412,3.39995093,-2.05773041,-0.70268691,0.95254365,0.01538225,0.23280227,-4.09902952,0.00000000,-2.43202577,3.02559417,-1.27861944,1.88107710,0.00000000,1.46649161,-3.99950330,-5.00000214
2.16500000,0.19654946,3.37051258,-2.03817756,-0.70256426,0.95251212,0.01547770,0.19784785,-4.06214384,0.00000000,-2.31811081,2.88471975,-1.23338352,1.84679297,0.00000000,1.41379908,-3.88722787,-5.00000214
2.17000000,0.23785766,3.38408635,-2.04291249,-0.70260842,0.95256214,0.01566775,0.17918394,-4.06593799,0.00000000,-2.36685115,2.93678345,-1.26763459,1.85544180,0.00000000,1.41142108,-3.93457633,-5.00000214
2.17500000,0.22271459,3.37379023,-2.00665220,-0.70251365,0.95256511,0.01572975,0.14731199,-4.04580299,0.00000000,-2.28506139,2.82215767,-1.23008035,1.83925696,0.00000000,1.35848200,-3.81890605,-5.00000214
2.18000000,0.17389468,3.35869485,-1.98972994,-0.70226424,0.95249188,0.01564687,0.13595408,-4.02976591,0.00000000,-2.18699131,2.72247696,-1.16803804,1.82073853,0.00000000,1.30042577,-3.74991747,-5.00000214
2.18500000,0.22190510,3.33566405,-1.95185469,-0.70239102,0.95258167,0.01576840,0.05740892,-3.98819514,0.00000000,-2.12315397,2.63336600,-1.18062531,1.78127407,0.00000000,1.24283335,-3.66705876,-5.00000214
2.19000000,0.23210825,3.33535839,-1.94362175,-0.70228637,0.95265340,0.01577171,0.00459913,-3.99118208,0.00000000,-2.06417574,2.62495538,-1.20192177,1.78193102,0.00000000,1.23580006,-3.62973532,-5.00000214
2.19500000,0.22763960,3.32147480,-1.94814356,-0.70223894,0.95267745,0.01578670,-0.01010261,-3.98142261,0.00000000,-2.03068786,2.57517313,-1.18624537,1.77381180,0.00000000,1.19912635,-3.56634668,-5.00000214
2.20000000,0.18596069,3.32166368,-1.94276681,-0.70209456,0.95258317,0.01582840,0.02063972,-3.97745436,0.00000000,-2.01643101,2.58184874,-1.15610711,1.77104183,0.00000000,1.21342652,-3.57468110,-5.00000214
2.20500000,0.19720066,3.32761567,-1.93018686,-0.70204636,0.95259021,0.01585156,0.02214535,-3.98226972,0.00000000,-2.04528524,2.56951833,-1.15015700,1.77469975,0.00000000,1.17900645,-3.59255246,-5.00000214
2.21000000,0.16798021,3.31433675,-1.95145854,-0.70187565,0.95247811,0.01582841,0.04568837,-3.96818289,0.00000000,-2.03862963,2.57060936,-1.12860358,1.75908079,0.00000000,1.17701042,-3.60915500,-5.00000214
2.21500000,0.27782045,3.35870150,-1.92952167,-0.70206943,0.95269073,0.01586395,-0.01811630,-4.01342046,0.00000000,-2.14831658,2.66968497,-1.24068704,1.80232102,0.00000000,1.19424126,-3.68821112,-5.00000214
2.22000000,0.24281233,3.41840623,-2.03015732,-0.70202660,0.95266692,0.01607121,0.14260595,-4.07209337,0.00000000,-2.39247795,3.07592049,-1.33542378,1.86288390,0.00000000,1.45637486,-3.95967503,-5.00000214
2.22500000,0.23692900,3.39887194,-2.02946859,-0.70192604,0.95264615,0.01609108,0.12990965,-4.05374935,0.00000000,-2.37192194,3.05229705,-1.32769290,1.84518742,0.00000000,1.43466092,-3.93710809,-5.00000214
2.23000000,0.23117757,3.36974047,-1.96835627,-0.70183750,0.95266713,0.01606871,0.05620745,-4.02647544,0.00000000,-2.23832455,2.86979403,-1.29299602,1.81654970,0.00000000,1.36437287,-3.75694533,-5.00000214
2.23500000,0.21321185,3.36896852,-1.96141082,-0.70177483,0.95255948,0.01605287,0.06467698,-4.01987629,0.00000000,-2.21230156,2.80579476,-1.23549801,1.81006299,0.00000000,1.29067060,-3.75807613,-5.00000214
2.24000000,0.27807033,3.41260392,-2.05018104,-0.70159753,0.95256176,0.01615955,0.07759271,-4.06638485,0.00000000,-2.38876683,3.07661861,-1.42798670,1.85392825,0.00000000,1.51423243,-4.00750125,-5.00000214
2.24500000,0.28546772,3.39248300,-1.97027595,-0.70161996,0.95259493,0.01621297,0.00078383,-4.03161778,0.00000000,-2.26826304,2.91017168,-1.38666510,1.82321594,0.00000000,1.42367861,-3.88453591,-5.00000214
2.25000000,0.25167696,3.37456318,-1.94726922,-0.70157113,0.95259583,0.01622789,-0.02077827,-4.01640400,0.00000000,-2.16393140,2.79049591,-1.31128927,1.80263527,0.00000000,1.33467122,-3.79307316,-5.00000214
2.25500000,0.23575000,3.40246162,-2.01143731,-0.70150428,0.95264752,0.01643846,0.08432894,-4.03730216,0.00000000,-2.34599835,3.07421921,-1.39925711,1.82399416,0.00000000,1.53900101,-4.03006817,-5.00000214
2.26000000,0.22253241,3.37581465,-1.96865896,-0.70142679,0.95265751,0.01639703,0.05705517,-4.00659456,0.00000000,-2.28355638,2.94095672,-1.30596581,1.79150035,0.00000000,1.38646848,-3.96127251,-5.00000214
2.26500000,0.21412160,3.37349138,-1.97546742,-0.70135030,0.95261961,0.01648720,0.05077484,-3.99599257,0.00000000,-2.24860401,2.91162205,-1.29998346,1.78517203,0.00000000,1.37078253,-3.91550929,-5.00000214
2.27000000,0.20710601,3.40178042,-1.97219245,-0.70135206,0.95259702,0.01646374,0.09627126,-4.02623970,0.00000000,-2.33102422,3.05216267,-1.27473118,1.81457727,0.00000000,1.34094933,-3.98722274,-5.00000214
2.27500000,0.20507703,3.39706044,-1.97533600,-0.70126387,0.95257085,0.01645110,0.06235092,-4.04309083,0.00000000,-2.25607532,2.73996373,-1.25629634,1.81297393,0.00000000,1.28186415,-3.82025673,-5.00000214
2.28000000,0.18744414,3.33308241,-1.91302808,-0.70115190,0.95265765,0.01653877,-0.01563510,-3.94813884,0.00000000,-2.10589433,2.73906377,-1.21178512,1.73774022,0.00000000,1.21693047,-3.75034944,-5.00000214
2.28500000,0.18693208,3.41686533,-2.01470801,-0.70114626,0.95260162,0.01656118,0.12704002,-4.06242819,0.00000000,-2.34447007,2.76358221,-1.28379352,1.83321706,0.00000000,1.35951039,-3.97239624,-5.00000214
2.29000000,0.11550195,3.40521171,-2.03929109,-0.70089670,0.95245942,0.01661792,0.17675490,-4.04319225,0.00000000,-2.30338316,2.75803138,-1.23732430,1.81829817,0.00000000,1.38527124,-3.96203202,-5.00000214
2.29500000,0.15611988,3.38873571,-2.01776300,-0.70080351,0.95251851,0.01664851,0.11165461,-4.00495870,0.00000000,-2.31264198,3.07620820,-1.29215087,1.79028446,0.00000000,1.40969279,-4.02201860,-5.00000214
2.30000000,0.22232342,3.41334345,-2.02715413,-0.70096075,0.95263954,0.01666745,0.08191978,-4.03459126,0.00000000,-2.37766093,3.11851229,-1.34965820,1.82375130,0.00000000,1.39770016,-4.06630398,-5.00000214
2.30500000,0.15961139,3.39054496,-2.00414364,-0.70070165,0.95253389,0.01665637,0.06363787,-4.00920981,0.00000000,-2.24352911,2.97547062,-1.29261271,1.79794785,0.00000000,1.37005690,-3.86562609,-5.00000214
2.31000000,0.19745719,3.36094071,-1.94187827,-0.70076000,0.95256818,0.01664435,-0.02656677,-3.97474006,0.00000000,-2.16033332,2.86512658,-1.30109944,1.76650906,0.00000000,1.31485599,-3.71423192,-5.00000214
2.31500000,0.14079132,3.35565439,-1.97093513,-0.70048935,0.95245678,0.01671024,0.00680991,-3.96406325,0.00000000,-2.12024359,2.84599579,-1.26211726,1.75420215,0.00000000,1.31445327,-3.71064632,-5.00000214
2.32000000,0.12981684,3.33978785,-1.95802475,-0.70040961,0.95242648,0.01678648,-0.01965453,-3.93653179,0.00000000,-2.04960306,2.74439719,-1.23307340,1.72786402,0.00000000,1.26667308,-3.63747350,-5.00000214
2.32500000,0.13749640,3.33408958,-1.94418476,-0.70037390,0.95245731,0.01678445,-0.05743224,-3.92813346,0.00000000,-1.99630681,2.68073622,-1.24301265,1.72272344,0.00000000,1.26225667,-3.56629496,-5.00000214
2.33000000,0.12874650,3.39241053,-2.02518550,-0.70036638,0.95243962,0.01700498,0.09316553,-3.98515802,0.00000000,-2.27791082,3.06333619,-1.33886671,1.77590672,0.00000000,1.48660929,-3.96916622,-5.00000214
2.33500000,0.11628680,3.37149054,-2.03221391,-0.70018347,0.95244451,0.01705809,0.07965888,-3.96228303,0.00000000,-2.24660695,3.04668992,-1.35527414,1.75853554,0.00000000,1.51121722,-3.88567279,-5.00000214
2.34000000,0.07738424,3.36156963,-2.02439233,-0.69999787,0.95240855,0.01717282,0.09804442,-3.93983079,0.00000000,-2.21803882,3.03203999,-1.31044488,1.73279633,0.00000000,1.49663939,-3.88066908,-5.00000214
2.34500000,0.07151010,3.33808601,-2.00004752,-0.69991637,0.95242028,0.01718535,0.05838810,-3.90832857,0.00000000,-2.13068992,2.90464679,-1.26885309,1.70952893,0.00000000,1.40331996,-3.73872640,-5.00000214
2.35000000,0.07555749,3.32652181,-1.97510917,-0.69984750,0.95245834,0.01712779,-0.00152866,-3.89738151,0.00000000,-2.03727309,2.80787726,-1.23093854,1.69203250,0.00000000,1.30508682,-3.65395820,-5.00000214
2.35500000,0.09331150,3.30098905,-1.96882042,-0.69982757,0.95248450,0.01714890,-0.06150099,-3.86856513,0.00000000,-1.95687839,2.73949518,-1.22144735,1.66471656,0.00000000,1.23465239,-3.56688170,-5.00000214
2.36000000,0.07696878,3.31078498,-1.98442075,-0.69975953,0.95248823,0.01726902,-0.04909457,-3.87590416,0.00000000,-1.95690382,2.75246933,-1.21444651,1.66828177,0.00000000,1.23386085,-3.57360401,-5.00000214
2.36500000,0.10407410,3.31323597,-1.99691794,-0.69973667,0.95250063,0.01735494,-0.05523229,-3.87693930,0.00000000,-2.01202385,2.81579731,-1.24932030,1.67155098,0.00000000,1.24631301,-3.62051461,-5.00000214
2.37000000,0.07522319,3.31308388,-1.99929685,-0.69953908,0.95240029,0.01733662,-0.04349137,-3.87874780,0.00000000,-1.99840495,2.80717008,-1.24215495,1.67581274,0.00000000,1.27066195,-3.58874368,-5.00000214
2.37500000,0.06848864,3.28583061,-1.97131405,-0.69943930,0.95231052,0.01741720,-0.07878507,-3.83335997,0.00000000,-1.92609776,2.72438262,-1.26347905,1.63541776,0.00000000,1.31248137,-3.49668817,-5.00000214
2.38000000,0.08650459,3.30861406,-1.97210087,-0.69935387,0.95231226,0.01731007,-0.11758509,-3.86756902,0.00000000,-1.89167045,2.68293660,-1.24351797,1.65981872,0.00000000,1.22624496,-3.50529802,-5.00000214
2.38500000,0.12156730,3.35833585,-2.01725889,-0.69942133,0.95235008,0.01741702,-0.08937496,-3.92014727,0.00000000,-2.02267072,2.92569549,-1.32090307,1.71271754,0.00000000,1.32075098,-3.69843886,-5.00000214
2.39000000,0.09244990,3.35030364,-2.03479267,-0.69933566,0.95237845,0.01751169,-0.05623724,-3.90809570,0.00000000,-2.04520878,2.95876756,-1.31216356,1.70450599,0.00000000,1.34556582,-3.71665237,-5.00000214
2.39500000,0.12522558,3.35245261,-2.06055639,-0.69929712,0.95239879,0.01760309,-0.03656279,-3.90993654,0.00000000,-2.16591856,3.10274809,-1.37668988,1.70320999,0.00000000,1.40384303,-3.82768945,-5.00000214
2.40000000,0.12226032,3.34123205,-2.03753361,-0.69933409,0.95239517,0.01769350,-0.05182602,-3.88866252,0.00000000,-2.11806965,3.03945594,-1.34332858,1.68249656,0.00000000,1.35649736,-3.77152075,-5.00000214
2.40500000,0.06127030,3.34456769,-2.02662301,-0.69908808,0.95230849,0.01763313,-0.02180436,-3.89062483,0.00000000,-2.07167843,2.98774825,-1.29578559,1.68785346,0.00000000,1.35858066,-3.72650501,-5.00000214
2.41000000,0.08234214,3.33003069,-2.01039643,-0.69904858,0.95234550,0.01760914,-0.07897315,-3.87464758,0.00000000,-2.00221157,2.88515648,-1.28500152,1.66895059,0.00000000,1.28442429,-3.66595664,-5.00000214
2.41500000,0.09289389,3.36278839,-2.01449563,-0.69903795,0.95243358,0.01772194,-0.08970540,-3.90392677,0.00000000,-2.01324855,2.93353730,-1.29990304,1.70275772,0.00000000,1.28238396,-3.67466061,-5.00000214
2.42000000,0.14423090,3.35007753,-2.02792651,-0.69910368,0.95247784,0.01794102,-0.08155090,-3.87885297,0.00000000,-2.15276697,3.14943246,-1.38069349,1.67447052,0.00000000,1.35398932,-3.83920150,-5.00000214
2.42500000,0.11088365,3.32222722,-1.99925078,-0.69892679,0.95243867,0.01794246,-0.11169562,-3.84820739,0.00000000,-2.04954743,3.01692312,-1.33346803,1.64321628,0.00000000,1.30484273,-3.75589173,-5.00000214
2.43000000,0.09350606,3.31287268,-1.95703893,-0.69886952,0.95246675,0.01795408,-0.14104357,-3.83154484,0.00000000,-1.96300073,2.88521752,-1.28590346,1.62774675,0.00000000,1.24874814,-3.64936863,-5.00000214
2.43500000,0.10978543,3.30161637,-1.94093439,-0.69891608,0.95245292,0.01796092,-0.17806800,-3.81558300,0.00000000,-1.90778240,2.79092831,-1.25134342,1.61015078,0.00000000,1.15718841,-3.58797958,-5.00000214
2.44000000,0.16323927,3.36035324,-2.02596761,-0.69883497,0.95245237,0.01807614,-0.12460125,-3.88087358,0.00000000,-2.14161985,3.18045429,-1.40959201,1.67179729,0.00000000,1.34858068,-3.82521196,-5.00000214
2.44500000,0.16138074,3.33462035,-1.98699311,-0.69875251,0.95245392,0.01808040,-0.18693592,-3.85011242,0.00000000,-2.03226800,3.01247144,-1.39021413,1.64476734,0.00000000,1.29490259,-3.67881103,-5.00000214
2.45000000,0.14179604,3.31990125,-1.97766988,-0.69857358,0.95246794,0.01811281,-0.22410458,-3.83033751,0.00000000,-1.94590926,2.92036483,-1.37888382,1.63117405,0.00000000,1.27988062,-3.56963873,-5.00000214
2.45500000,0.13790871,3.29688190,-1.98331030,-0.69843051,0.95243989,0.01810936,-0.26545731,-3.81093542,0.00000000,-1.86791016,2.81931039,-1.35945252,1.60345496,0.00000000,1.21660947,-3.50484575,-5.00000214
2.46000000,0.16939515,3.29653420,-1.95655189,-0.69851378,0.95244382,0.01811258,-0.31618768,-3.80518617,0.00000000,-1.81835501,2.71596195,-1.35097861,1.60302293,0.00000000,1.15608589,-3.45452761,-5.00000214
2.46500000,0.15611933,3.36551455,-2.04588793,-0.69844560,0.95239753,0.01818142,-0.16943274,-3.88444205,0.00000000,-2.07793724,3.07766004,-1.45845418,1.67266111,0.00000000,1.41091427,-3.88516684,-5.00000214
2.47000000,0.17880537,3.37399421,-2.05676006,-0.69849218,0.95242342,0.01829494,-0.17460826,-3.88333982,0.00000000,-2.10022598,3.08398936,-1.46644554,1.68160168,0.00000000,1.37938783,-3.85140135,-5.00000214
2.47500000,0.17431302,3.32379615,-1.98863498,-0.69839331,0.95246017,0.01824749,-0.26736841,-3.83177962,0.00000000,-1.94828942,2.94397451,-1.42783371,1.62511893,0.00000000,1.30131961,-3.68943660,-5.00000214
2.48000000,0.19192030,3.34855936,-2.04436335,-0.69837002,0.95249295,0.01833936,-0.22850723,-3.85441213,0.00000000,-2.06021126,3.12829041,-1.47147056,1.64916913,0.00000000,1.34576562,-3.82352515,-5.00000214
2.48500000,0.16529270,3.30810034,-2.00449401,-0.69827215,0.95247727,0.01825317,-0.26235986,-3.81338237,0.00000000,-1.94628872,2.95743064,-1.41519076,1.60616056,0.00000000,1.27622889,-3.69538003,-5.00000214
2.49000000,0.14187768,3.34174357,-2.05799461,-0.69821282,0.95247424,0.01837841,-0.20554040,-3.84255502,0.00000000,-1.99576477,3.05108604,-1.41706131,1.64190061,0.00000000,1.31887971,-3.78011605,-5.00000214
2.49500000,0.14614462,3.29312397,-2.01126484,-0.69813808,0.95250222,0.01839046,-0.28132116,-3.78951797,0.00000000,-1.87830368,2.89097664,-1.39055588,1.58168928,0.00000000,1.24139719,-3.63008061,-5.00000214
2.50000000,0.14594583,3.28565408,-2.02211024,-0.69805889,0.95249201,0.01846627,-0.31789930,-3.77374181,0.00000000,-1.80427726,2.81660056,-1.38175924,1.57456057,0.00000000,1.20046923,-3.55673137,-5.00000214
2.50500000,0.14599530,3.27916810,-1.99051925,-0.69797923,0.95250174,0.01843363,-0.35394329,-3.77064850,0.00000000,-1.74946687,2.74584726,-1.36943066,1.56892279,0.00000000,1.17025746,-3.49823879,-5.00000214
2.51000000,0.15254437,3.28232903,-1.98079805,-0.69803996,0.95251230,0.01847593,-0.35974212,-3.76977768,0.00000000,-1.74667243,2.74796453,-1.36944845,1.56778759,0.00000000,1.16651124,-3.50946643,-5.00000214
2.51500000,0.11747916,3.29024652,-2.00486070,-0.69787216,0.95243781,0.01849447,-0.33982979,-3.77618453,0.00000000,-1.71800673,2.72760428,-1.34857360,1.57967910,0.00000000,1.17505409,-3.48807649,-5.00000214
2.52000000,0.13637034,3.27833993,-1.99276392,-0.69779401,0.95245433,0.01850322,-0.39379627,-3.75945914,0.00000000,-1.67239467,2.66737271,-1.37672581,1.56412635,0.00000000,1.17412260,-3.40524641,-5.00000214
2.52500000,0.18479452,3.29180170,-2.03643906,-0.69784598,0.95250492,0.01866420,-0.40080704,-3.77153021,0.00000000,-1.74804563,2.74343246,-1.43023420,1.57057099,0.00000000,1.16731894,-3.48017982,-5.00000214
2.53000000,0.16244775,3.34291139,-2.05691144,-0.69780430,0.95249449,0.01877485,-0.33438282,-3.82015960,0.00000000,-1.84277751,2.89875061,-1.44101360,1.62049047,0.00000000,1.24799011,-3.61899269,-5.00000214
2.53500000,0.14491110,3.30878527,-2.02554190,-0.69766150,0.95248957,0.01880335,-0.38565121,-3.77950873,0.00000000,-1.73937178,2.82424445,-1.42155434,1.58017862,0.00000000,1.22502396,-3.50831627,-5.00000214
2.54000000,0.13016317,3.30006468,-1.99837927,-0.69757925,0.95247273,0.01878109,-0.40019535,-3.76695198,0.00000000,-1.68264144,2.69953425,-1.38812633,1.56949809,0.00000000,1.17860339,-3.40576571,-5.00000214
2.54500000,0.13892186,3.28605985,-1.97777894,-0.69758118,0.95242896,0.01873681,-0.42985703,-3.75317678,0.00000000,-1.63998636,2.62598466,-1.33468955,1.54822152,0.00000000,1.06648872,-3.42228841,-5.00000214
2.55000000,0.16304740,3.36562671,-2.10643843,-0.69745824,0.95242855,0.01892483,-0.32481148,-3.83734262,0.00000000,-1.90114491,3.09266334,-1.51220719,1.63032584,0.00000000,1.36156637,-3.89698882,-5.00000214
2.55500000,0.14071044,3.32688953,-2.07251230,-0.69734361,0.95243186,0.01894348,-0.37237667,-3.78854352,0.00000000,-1.78063442,2.93349453,-1.47789814,1.58434572,0.00000000,1.31637562,-3.70750106,-5.00000214
2.56000000,0.16794415,3.33468430,-2.10878562,-0.69734387,0.95252539,0.01899488,-0.38130077,-3.80339671,0.00000000,-1.81418479,2.97000271,-1.50915955,1.59469055,0.00000000,1.30560218,-3.74545682,-5.00000214
2.56500000,0.12937952,3.27821127,-2.06505017,-0.69722056,0.95249647,0.01902905,-0.40183239,-3.73221763,0.00000000,-1.71969150,2.86238410,-1.45707956,1.52644450,0.00000000,1.27151766,-3.61977875,-5.00000214
2.57000000,0.10925386,3.26450558,-2.06254401,-0.69714149,0.95246043,0.01905166,-0.40339686,-3.71331891,0.00000000,-1.66933371,2.78242688,-1.42232398,1.51212653,0.00000000,1.23273368,-3.55440845,-5.00000214
2.57500000,0.09418005,3.26840282,-2.07653109,-0.69703294,0.95241300,0.01906642,-0.41523613,-3.71833020,0.00000000,-1.61688359,2.73753376,-1.39473268,1.51143166,0.00000000,1.19004584,-3.51987616,-5.00000214
2.58000000,0.11084456,3.28259451,-2.07478780,-0.69704147,0.95242851,0.01917824,-0.45246908,-3.72333394,0.00000000,-1.56985220,2.70549468,-1.42119930,1.52404239,0.00000000,1.19760366,-3.48343502,-5.00000214
2.58500000,0.15110056,3.34982895,-2.17746454,-0.69697689,0.95245271,0.01929820,-0.35711932,-3.80247903,0.00000000,-1.85802925,3.12461603,-1.60268044,1.59943013,0.00000000,1.47157740,-3.86103420,-5.00000214
2.59000000,0.16783704,3.33591684,-2.11575433,-0.69700134,0.95246918,0.01931289,-0.42165416,-3.78217700,0.00000000,-1.78202539,3.00190756,-1.59144335,1.58229139,0.00000000,1.42635061,-3.75776285,-5.00000214
2.59500000,0.13575619,3.29508246,-2.09416385,-0.69683572,0.95242491,0.01933261,-0.46012839,-3.73471467,0.00000000,-1.65935843,2.85454242,-1.54672965,1.53236444,0.00000000,1.37299996,-3.64540441,-5.00000214
2.60000000,0.12135806,3.30594865,-2.11248153,-0.69675809,0.95236943,0.01927366,-0.45359480,-3.75064523,0.00000000,-1.62969246,2.80265572,-1.51076829,1.54641718,0.00000000,1.32451293,-3.62950452,-5.00000214
2.60500000,0.10551285,3.36004098,-2.20438788,-0.69672982,0.95230914,0.01951451,-0.32437749,-3.79456946,0.00000000,-1.83772531,3.05540060,-1.58931689,1.59660686,0.00000000,1.50964202,-3.82220490,-5.00000214
2.61000000,0.10486414,3.32835103,-2.14457823,-0.69659796,0.95235607,0.01945660,-0.40773416,-3.76310052,0.00000000,-1.71204899,2.91371184,-1.57533898,1.56298945,0.00000000,1.46565237,-3.66680312,-5.00000214
2.61500000,0.12840494,3.34493351,-2.19747608,-0.69659083,0.95240315,0.01961255,-0.39735089,-3.77818563,0.00000000,-1.77858459,3.05143472,-1.64154571,1.57519651,0.00000000,1.53919963,-3.83553852,-5.00000214
2.62000000,0.14132081,3.34179685,-2.20735278,-0.69649990,0.95247645,0.01966855,-0.43340450,-3.77384564,0.00000000,-1.73779988,2.99666998,-1.66295986,1.58177497,0.00000000,1.53638800,-3.72156680,-5.00000214
2.62500000,0.13185580,3.32387265,-2.15959595,-0.69648070,0.95239579,0.01956057,-0.46077127,-3.75571320,0.00000000,-1.68027402,2.96857222,-1.59762265,1.55641145,0.00000000,1.43805807,-3.75160228,-5.00000214
2.63000000,0.06746215,3.29369394,-2.15411720,-0.69624900,0.95230218,0.01963314,-0.43085044,-3.71244623,0.00000000,-1.62941579,2.91470535,-1.55193227,1.51346889,0.00000000,1.44889786,-3.68955055,-5.00000214
2.63500000,0.08180472,3.28291044,-2.12471682,-0.69624549,0.95231787,0.01968368,-0.49097875,-3.69342541,0.00000000,-1.54223987,2.81892376,-1.55038428,1.49144088,0.00000000,1.40804396,-3.59538695,-5.00000214
2.64000000,0.06231075,3.30563534,-2.16764072,-0.69614181,0.95231263,0.01974666,-0.46051705,-3.71663067,0.00000000,-1.55388147,2.86403081,-1.54831860,1.51786223,0.00000000,1.42420811,-3.62854610,-5.00000214
2.64500000,-0.03085924,3.32304548,-2.19628477,-0.69610907,0.95224422,0.01985584,-0.27708021,-3.73144408,0.00000000,-1.73716867,3.07987695,-1.48209537,1.52737067,0.00000000,1.50326593,-3.86327180,-5.00000214
2.65000000,-0.01752324,3.31562910,-2.19104131,-0.69604927,0.95232276,0.01994837,-0.30541770,-3.71829019,0.00000000,-1.71738641,3.06254631,-1.48738891,1.51824098,0.00000000,1.47495122,-3.79976129,-5.00000214
2.65500000,-0.03466741,3.27523994,-2.13948128,-0.69592419,0.95229002,0.01994949,-0.35217183,-3.66657396,0.00000000,-1.61472143,2.91121466,-1.43326070,1.46158467,0.00000000,1.38719958,-3.67677817,-5.00000214
2.66000000,-0.02585842,3.27604100,-2.12449324,-0.69596733,0.95227251,0.01990733,-0.39504308,-3.66878498,0.00000000,-1.53231816,2.80789107,-1.39364092,1.46488844,0.00000000,1.29715308,-3.58702045,-5.00000214
2.66500000,-0.02305794,3.30648310,-2.17929950,-0.69581763,0.95226870,0.01989822,-0.39331010,-3.70783631,0.00000000,-1.54535384,2.84078119,-1.42109225,1.50847086,0.00000000,1.30569201,-3.48371214,-5.00000214
2.67000000,0.00972201,3.29548214,-2.14100585,-0.69588579,0.95226148,0.01993757,-0.44860186,-3.69365449,0.00000000,-1.51437307,2.80679150,-1.42589488,1.48836339,0.00000000,1.25540831,-3.44655305,-5.00000214
2.67500000,-0.03361739,3.34253141,-2.22663965,-0.69576334,0.95216492,0.02004911,-0.29089510,-3.74576175,0.00000000,-1.74069750,3.09219827,-1.44361102,1.53902943,0.00000000,1.36513476,-3.65777768,-5.00000214
2.68000000,-0.07411358,3.32729184,-2.18605190,-0.69566943,0.95202858,0.02015555,-0.27953385,-3.71724946,0.00000000,-1.69910682,3.04566923,-1.50911635,1.51684133,0.00000000,1.57471344,-3.68442655,-5.00000214
2.68500000,-0.07308673,3.30480295,-2.16049219,-0.69550407,0.95205221,0.02008960,-0.33525803,-3.68878675,0.00000000,-1.60955582,2.88510865,-1.49932859,1.49472210,0.00000000,1.52684021,-3.57303654,-5.00000214
2.69000000,-0.03048759,3.26354724,-2.11854887,-0.69558450,0.95212825,0.02003902,-0.42219083,-3.64641103,0.00000000,-1.53439365,2.79618199,-1.48615385,1.44635036,0.00000000,1.43291154,-3.52644167,-5.00000214
2.69500000,-0.00229855,3.30073805,-2.19365197,-0.69540497,0.95220273,0.02013571,-0.46984992,-3.68692642,0.00000000,-1.50063231,2.82765056,-1.53446184,1.49688567,0.00000000,1.42027699,-3.50541056,-5.00000214
2.70000000,-0.01530054,3.29938115,-2.18871416,-0.69539737,0.95224193,0.02020587,-0.44440598,-3.68811802,0.00000000,-1.52943092,2.86906991,-1.52464767,1.48543144,0.00000000,1.43796361,-3.54746036,-5.00000214
2.70500000,-0.02552550,3.27370563,-2.16929447,-0.69526623,0.95220050,0.02019844,-0.45204451,-3.66310374,0.00000000,-1.51735255,2.85293273,-1.49092257,1.45504230,0.00000000,1.38188555,-3.56321378,-5.00000214
2.71000000,-0.03263836,3.28214435,-2.16028194,-0.69516876,0.95219417,0.02019670,-0.45710459,-3.66596029,0.00000000,-1.49364585,2.80317194,-1.47631111,1.47131390,0.00000000,1.35682298,-3.46538798,-5.00000214
2.71500000,-0.01713356,3.33446135,-2.22917777,-0.69518096,0.95214624,0.02023675,-0.34833632,-3.72571705,0.00000000,-1.74017998,3.18502431,-1.53824104,1.52446167,0.00000000,1.45473584,-3.65182361,-5.00000214
2.72000000,-0.02840488,3.30395122,-2.18374591,-0.69502865,0.95214045,0.02020586,-0.40977185,-3.68791067,0.00000000,-1.62056655,3.01287688,-1.50190034,1.48310880,0.00000000,1.37420621,-3.51828167,-5.00000214
2.72500000,-0.02621752,3.33278016,-2.19672985,-0.69506488,0.95223811,0.02032384,-0.40990443,-3.71543980,0.00000000,-1.61618476,3.02287103,-1.49164638,1.51020535,0.00000000,1.34735401,-3.53685805,-5.00000214
2.73000000,-0.03394198,3.31005336,-2.18585239,-0.69499185,0.95222250,0.02028718,-0.43836431,-3.69372140,0.00000000,-1.55300324,2.95054431,-1.44749375,1.48029740,0.00000000,1.26380124,-3.48197357,-5.00000214
2.73500000,-0.02554859,3.30857408,-2.14700437,-0.69499006,0.95220729,0.02043696,-0.42846518,-3.68028478,0.00000000,-1.61649245,3.02376882,-1.46849232,1.47638817,0.00000000,1.30528162,-3.57004085,-5.00000214
2.74000000,-0.08096036,3.29902851,-2.16008713,-0.69477189,0.95209503,0.02047792,-0.39362833,-3.66575547,0.00000000,-1.58253711,2.99584020,-1.42317951,1.46307441,0.00000000,1.30532629,-3.56246967,-5.00000214
2.74500000,-0.07120796,3.31756939,-2.12925596,-0.69480039,0.95212565,0.02054951,-0.41485376,-3.67702592,0.00000000,-1.56207280,2.95139116,-1.42604896,1.47855976,0.00000000,1.30489172,-3.49434064,-5.00000214
2.75000000,-0.06234255,3.33144166,-2.12309887,-0.69476558,0.95216356,0.02061948,-0.43556003,-3.68682617,0.00000000,-1.54630849,2.93006361,-1.44033979,1.49109581,0.00000000,1.30281026,-3.45286867,-5.00000214
2.75500000,-0.05941052,3.30414513,-2.09663995,-0.69458372,0.95216793,0.02066021,-0.49718789,-3.65344608,0.00000000,-1.47354248,2.85851247,-1.44664595,1.45290939,0.00000000,1.27129297,-3.36472102,-5.00000214
2.76000000,-0.01611568,3.35630234,-2.15603640,-0.69460220,0.95218265,0.02072515,-0.44147516,-3.71552477,0.00000000,-1.67191601,3.15780304,-1.58271870,1.51050057,0.00000000,1.47658180,-3.80600646,-5.00000214
2.76500000,-0.01110635,3.32957976,-2.11907609,-0.69454942,0.95217148,0.02079001,-0.49619700,-3.67821163,0.00000000,-1.58956327,3.03664094,-1.54900180,1.47397000,0.00000000,1.39525444,-3.66625123,-5.00000214
2.77000000,-0.00288867,3.35017049,-2.15733218,-0.69443934,0.95210351,0.02081012,-0.46965315,-3.69849432,0.00000000,-1.65982926,3.14984913,-1.57873401,1.49687132,0.00000000,1.41767865,-3.70410861,-5.00000214
2.77500000,-0.01051021,3.31539848,-2.13931683,-0.69432302,0.95210437,0.02082018,-0.52450192,-3.65785967,0.00000000,-1.54598139,3.00481081,-1.54977473,1.45735786,0.00000000,1.34935433,-3.57192777,-5.00000214
2.78000000,-0.02161746,3.31716791,-2.12787268,-0.69419911,0.95214980,0.02086895,-0.52899813,-3.65756876,0.00000000,-1.54179294,3.01002369,-1.55047094,1.45539867,0.00000000,1.35142635,-3.57344806,-5.00000214
2.78500000,-0.01508154,3.31284483,-2.11182297,-0.69419986,0.95225815,0.02088018,-0.56139172,-3.65446770,0.00000000,-1.49632078,2.98571650,-1.55024504,1.45849337,0.00000000,1.33682456,-3.48562964,-5.00000214
2.79000000,-0.07450567,3.32811341,-2.09924703,-0.69403556,0.95219152,0.02094337,-0.49515535,-3.66386173,0.00000000,-1.53272713,3.05110883,-1.52220016,1.47035211,0.00000000,1.39418957,-3.53741574,-5.00000214
2.79500000,-0.06403193,3.29492923,-2.11602367,-0.69400343,0.95217159,0.02104626,-0.52291811,-3.61849179,0.00000000,-1.48643257,2.99491556,-1.51892033,1.42295662,0.00000000,1.35006468,-3.49467866,-5.00000214
2.80000000,-0.08942785,3.26295602,-2.08280749,-0.69382181,0.95206580,0.02100982,-0.54831362,-3.58352045,0.00000000,-1.41867618,2.93188777,-1.51716863,1.38917920,0.00000000,1.37855169,-3.46862190,-5.00000214
2.80500000,0.00965068,3.33377959,-2.15478649,-0.69387174,0.95216918,0.02116872,-0.54771391,-3.65748384,0.00000000,-1.61540117,3.19927481,-1.65619415,1.45617556,0.00000000,1.46702153,-3.75224360,-5.00000214
2.81000000,-0.00674935,3.32833589,-2.14938313,-0.69378797,0.95214837,0.02119401,-0.53487577,-3.65093103,0.00000000,-1.62909570,3.22489936,-1.66468119,1.45282335,0.00000000,1.50965501,-3.76369064,-5.00000214
2.81500000,-0.04078842,3.30996228,-2.14441620,-0.69359389,0.95211923,0.02131218,-0.57775563,-3.62374234,0.00000000,-1.49212453,3.10641213,-1.66840087,1.42635841,0.00000000,1.54783314,-3.65624141,-5.00000214
2.82000000,-0.02811159,3.31563194,-2.11907962,-0.69357266,0.95212800,0.02132404,-0.60533949,-3.62787305,0.00000000,-1.47757532,3.07835132,-1.67661528,1.43647253,0.00000000,1.54033892,-3.63805965,-5.00000214
2.82500000,-0.03360876,3.28796255,-2.07337242,-0.69346946,0.95211446,0.02130148,-0.65407682,-3.59087791,0.00000000,-1.39118886,2.95036482,-1.64475935,1.40169197,0.00000000,1.48240767,-3.53436023,-5.00000214
2.83000000,0.03330960,3.31434169,-2.11957723,-0.69360414,0.95222535,0.02158087,-0.72059204,-3.60398416,0.00000000,-1.35614110,2.93901727,-1.69715211,1.41782573,0.00000000,1.44557724,-3.53039968,-5.00000214
2.83500000,0.01235011,3.25899924,-2.04741523,-0.69338994,0.95220506,0.02141239,-0.77789670,-3.55519317,0.00000000,-1.27015436,2.84133051,-1.67847344,1.36147077,0.00000000,1.42828945,-3.44863044,-5.00000214
2.84000000,0.08031102,3.28778403,-2.11526921,-0.69337492,0.95226810,0.02166649,-0.83869297,-3.57807701,0.00000000,-1.26338578,2.84647962,-1.75393046,1.38960391,0.00000000,1.40418292,-3.41872303,-5.00000214
2.84500000,-0.03693218,3.31186963,-2.12966235,-0.69320888,0.95209798,0.02161769,-0.62230547,-3.60517791,0.00000000,-1.48141639,3.12711239,-1.73007453,1.40922997,0.00000000,1.62758502,-3.81511347,-5.00000214
2.85000000,0.00513962,3.34505765,-2.13420246,-0.69327703,0.95215253,0.02189847,-0.65165693,-3.62200526,0.00000000,-1.48909593,3.12393274,-1.75552815,1.43394245,0.00000000,1.60427738,-3.79697906,-5.00000214
2.85500000,0.00201862,3.31318005,-2.11643818,-0.69316194,0.95215923,0.02187218,-0.70151227,-3.58682369,0.00000000,-1.39638741,3.02915447,-1.72949403,1.39526641,0.00000000,1.53544888,-3.70331573,-5.00000214
2.86000000,-0.00975672,3.27781765,-2.07037322,-0.69305617,0.95218342,0.02169656,-0.75519994,-3.55659947,0.00000000,-1.29360670,2.90291306,-1.69964806,1.36895728,0.00000000,1.48768529,-3.54383405,-5.00000214
2.86500000,-0.02226931,3.09846025,-2.07206187,-0.69300358,0.95228806,0.02178993,-0.77286681,-3.35472710,0.00000000,-1.25798762,2.86224547,-1.69837336,1.17094663,0.00000000,1.47946884,-3.48199132,-5.00000214
2.87000000,0.01588147,3.24389585,-2.09979120,-0.69300827,0.95226476,0.02205735,-0.80594452,-3.49895596,0.00000000,-1.24657475,2.85738636,-1.70719923,1.31254061,0.00000000,1.42174910,-3.47963545,-5.00000214
2.87500000,0.02029403,3.31443145,-2.19325824,-0.69278153,0.95226620,0.02213557,-0.70404591,-3.58264476,0.00000000,-1.47832030,3.19520266,-1.83879632,1.40117982,0.00000000,1.64079927,-3.63108353,-5.00000214
2.88000000,0.03407259,3.29871039,-2.13692555,-0.69285462,0.95220453,0.02218995,-0.76397804,-3.55588864,0.00000000,-1.38156904,3.05022259,-1.78742996,1.36999419,0.00000000,1.52931147,-3.55037769,-5.00000214
2.88500000,0.00540651,3.33268962,-2.15511571,-0.69277614,0.95215169,0.02226652,-0.68166661,-3.58367293,0.00000000,-1.49525220,3.23972548,-1.80380152,1.40196148,0.00000000,1.63111902,-3.72378734,-5.00000214
2.89000000,0.00947386,3.30144447,-2.14134149,-0.69266275,0.95215237,0.02229111,-0.75882939,-3.54957404,0.00000000,-1.36178395,3.08023871,-1.80466637,1.36272111,0.00000000,1.59336542,-3.61657985,-5.00000214
2.89500000,-0.00737700,3.30171604,-2.14315474,-0.69264534,0.95216435,0.02239122,-0.73753335,-3.54524428,0.00000000,-1.38462071,3.10605013,-1.78880572,1.36148325,0.00000000,1.59371234,-3.65959217,-5.00000214
2.90000000,0.01487824,3.30727624,-2.15682593,-0.69270332,0.95219917,0.02249295,-0.71589775,-3.54753876,0.00000000,-1.47745808,3.21276722,-1.83076933,1.36056040,0.00000000,1.64140482,-3.76490841,-5.00000214
2.90500000,-0.00504248,3.31804999,-2.15942421,-0.69252786,0.95217086,0.02251861,-0.72280843,-3.55896746,0.00000000,-1.43656690,3.13705903,-1.77009352,1.36594780,0.00000000,1.54483811,-3.71117164,-5.00000214
2.91000000,-0.01699924,3.28238828,-2.10024157,-0.69248643,0.95210684,0.02248453,-0.75440258,-3.51633217,0.00000000,-1.36323848,3.01581499,-1.69528027,1.31833204,0.00000000,1.42663362,-3.60326966,-5.00000214
