Header,pelvis_tilt,pelvis_list,pelvis_rotation,pelvis_tx,pelvis_ty,pelvis_tz,hip_flexion_r,hip_adduction_r,hip_rotation_r,knee_angle_r,ankle_angle_r,subtalar_angle_r,mtp_angle_r,hip_flexion_l,hip_adduction_l,hip_rotation_l,knee_angle_l,ankle_angle_l,subtalar_angle_l,mtp_angle_l,lumbar_extension,lumbar_bending,lumbar_rotation
0,-0.40731401,6.4654444,90.31032317,0.58560397,0.97000722,-0.6941677,-3.87968251,-1.77575515,-28.21353069,-6.88611516,9.15854858,2.2072313,0,-3.13037853,-1.79367341,-18.28376555,-6.79651291,6.90017178,4.29761622,0,0,0,0
0.005,-0.39215505,6.49770086,90.32975687,0.58558259,0.97005333,-0.69417841,-3.93817475,-1.73840261,-28.13406533,-6.83471846,9.11212537,2.04444679,0,-3.15304805,-1.8248262,-18.36475487,-6.82016518,6.93737589,4.48498731,0,0,0,0
0.01,-0.39993186,6.49039727,90.3446075,0.58552215,0.97005693,-0.69417187,-3.9302996,-1.74954941,-28.14488686,-6.83798065,9.11499684,2.03147239,0,-3.14992667,-1.81286288,-18.35064001,-6.80438352,6.93539191,4.50299029,0,0,0,0
0.015,-0.39948295,6.49090589,90.3554397,0.58546835,0.97006809,-0.69416039,-3.93046981,-1.7520712,-28.14655602,-6.84076526,9.11244022,2.02984104,0,-3.1497371,-1.81124285,-18.34605066,-6.80013549,6.93638304,4.50699147,0,0,0,0
0.02,-0.40396755,6.48945655,90.37116536,0.58540468,0.97007594,-0.69415699,-3.92953372,-1.7597758,-28.16887247,-6.84266055,9.10438025,2.01674331,0,-3.15475398,-1.80195424,-18.31375011,-6.78179609,6.94288306,4.53014091,0,0,0,0
0.025,-0.40730553,6.49170985,90.39322916,0.58533866,0.97008568,-0.69416049,-3.93750139,-1.76377985,-28.19335003,-6.83749159,9.10160329,2.00852315,0,-3.15774159,-1.79648382,-18.28663788,-6.77490901,6.94404978,4.54247226,0,0,0,0
0.03,-0.40699004,6.49183514,90.40285721,0.58527805,0.97009184,-0.69416414,-3.93931329,-1.76679762,-28.20755943,-6.83738493,9.09577676,2.00788791,0,-3.16267142,-1.79234876,-18.26844389,-6.76283216,6.95078405,4.54809668,0,0,0,0
0.035,-0.40887008,6.49134122,90.41475023,0.58521546,0.97009482,-0.69416733,-3.94065836,-1.7718392,-28.22501575,-6.83718704,9.09293709,2.00772056,0,-3.16601281,-1.78602833,-18.24753319,-6.75153134,6.95508624,4.5525029,0,0,0,0
0.04,-0.4066267,6.49114724,90.41522989,0.58516485,0.97009774,-0.69416986,-3.94103497,-1.77315275,-28.22521617,-6.83711149,9.09291908,2.00771109,0,-3.16578401,-1.78533253,-18.24727865,-6.75121651,6.9551969,4.55254334,0,0,0,0
0.045,-0.40885875,6.48541953,90.42562284,0.58510313,0.97009304,-0.69418451,-3.93547951,-1.77961841,-28.24480421,-6.84082758,9.0889475,2.0054537,0,-3.16908552,-1.77685593,-18.22387568,-6.73092527,6.96554523,4.55943814,0,0,0,0
0.05,-0.40682607,6.4849642,90.42614757,0.585057,0.97009449,-0.69419297,-3.93589269,-1.78078223,-28.24502485,-6.84089015,9.08896174,2.0054881,0,-3.16894765,-1.77621376,-18.22354407,-6.73078806,6.9655922,4.5594278,0,0,0,0
0.055,-0.41014323,6.47677681,90.44915147,0.58499617,0.97008742,-0.69420427,-3.92635145,-1.78852409,-28.28485835,-6.85163693,9.09146708,2.02035572,0,-3.16231425,-1.76910474,-18.17197775,-6.72183626,6.96865197,4.54748285,0,0,0,0
0.06,-0.40786271,6.47576072,90.44899505,0.58495032,0.97008802,-0.69422093,-3.92676104,-1.78963653,-28.28515092,-6.85153087,9.09156646,2.02035337,0,-3.1624342,-1.76843389,-18.17202105,-6.72150163,6.96896363,4.54727645,0,0,0,0
0.065,-0.40449966,6.46774958,90.44749944,0.58491384,0.97007981,-0.69424719,-3.91918992,-1.78908718,-28.29389268,-6.85227574,9.09262557,2.02078757,0,-3.16411386,-1.76626194,-18.17008494,-6.70388633,6.98220411,4.54359425,0,0,0,0
0.07,-0.40270248,6.46681989,90.44752948,0.58487625,0.97008229,-0.69426745,-3.91948882,-1.7898372,-28.29399531,-6.85264801,9.09261608,2.02087978,0,-3.1642746,-1.76556835,-18.16965338,-6.70405383,6.98235201,4.54359624,0,0,0,0
0.075,-0.40096757,6.46570781,90.44768088,0.58483998,0.97008465,-0.69428985,-3.9196448,-1.79051926,-28.29417509,-6.85317586,9.0926367,2.0209085,0,-3.16449889,-1.7648778,-18.16912812,-6.70402882,6.98275928,4.54364818,0,0,0,0
0.08,-0.3992618,6.46441484,90.4479801,0.58480461,0.97008721,-0.69431471,-3.91965632,-1.79115033,-28.2944195,-6.8538884,9.09270248,2.02087158,0,-3.16478144,-1.76418141,-18.16850179,-6.70386032,6.98342456,4.54374678,0,0,0,0
0.085,-0.3975629,6.4356978,90.46619585,0.58475397,0.97004859,-0.69431488,-3.87524706,-1.79877943,-28.32412814,-6.88999828,9.11536572,2.03188276,0,-3.12930262,-1.76377326,-18.11025587,-6.71005059,7.01704429,4.52604618,0,0,0,0
0.09,-0.39596611,6.43433161,90.46624408,0.58472063,0.97005177,-0.69434467,-3.8754971,-1.7992536,-28.32433496,-6.89018566,9.11527556,2.03190236,0,-3.12976445,-1.76301473,-18.1103757,-6.71015353,7.01709773,4.52581401,0,0,0,0
0.095,-0.39442913,6.43285331,90.46657803,0.58468614,0.97005279,-0.694376,-3.87569452,-1.79980106,-28.32454709,-6.89063107,9.11523308,2.03186402,0,-3.13019034,-1.76234393,-18.11045466,-6.71018584,7.01732893,4.52557037,0,0,0,0
0.1,-0.3959174,6.39641065,90.47446683,0.58463666,0.97001191,-0.69438281,-3.82496893,-1.81115756,-28.34901767,-6.91944159,9.13100213,2.04856391,0,-3.08893043,-1.75624899,-18.07873803,-6.71241406,7.02502416,4.48398731,0,0,0,0
0.105,-0.39443726,6.39505578,90.47486693,0.58460042,0.97001089,-0.69441937,-3.82549277,-1.81173395,-28.34898139,-6.92000149,9.13087437,2.04856694,0,-3.08968395,-1.75564365,-18.07867742,-6.712958,7.02497345,4.48387745,0,0,0,0
0.11,-0.39350159,6.39471293,90.48133985,0.58455676,0.97000924,-0.69445624,-3.82537559,-1.8136728,-28.34921538,-6.9263031,9.13081784,2.04793854,0,-3.09051266,-1.75513784,-18.07813369,-6.71409284,7.02591653,4.4820037,0,0,0,0
0.115,-0.39200732,6.39310312,90.48148799,0.58451812,0.97000434,-0.69450067,-3.82606548,-1.8144242,-28.34940304,-6.92698241,9.1310204,2.04767925,0,-3.09122594,-1.75438815,-18.07795717,-6.71493696,7.02586625,4.48190727,0,0,0,0
0.12,-0.3970769,6.39615154,90.49024028,0.58446618,0.96999913,-0.6945367,-3.82415565,-1.8256591,-28.36001944,-6.94630543,9.14656068,2.03544815,0,-3.08992785,-1.74871082,-18.07117813,-6.72789111,7.02776955,4.47443989,0,0,0,0
0.125,-0.39554482,6.39409795,90.49078123,0.58442262,0.96999193,-0.69458788,-3.82511658,-1.82646704,-28.35986754,-6.94680094,9.14676855,2.03540336,0,-3.09063487,-1.74797882,-18.07120084,-6.72844706,7.02772189,4.47424757,0,0,0,0
0.13,-0.40360363,6.39392251,90.50023668,0.58436394,0.96998151,-0.69463907,-3.82678665,-1.83819928,-28.36288685,-6.95357861,9.16638201,2.02801141,0,-3.08950694,-1.73780453,-18.06867132,-6.73488804,7.02541981,4.46300319,0,0,0,0
0.135,-0.40192709,6.39175405,90.50054114,0.58431696,0.9699722,-0.69469625,-3.82791606,-1.83912377,-28.36273702,-6.95420002,9.16645746,2.02793865,0,-3.09039976,-1.73707328,-18.06864483,-6.73552941,7.02525035,4.46281629,0,0,0,0
0.14,-0.4136062,6.39625649,90.50673529,0.58425015,0.96996677,-0.69475232,-3.83411105,-1.85621044,-28.3636957,-6.96276606,9.18575807,2.02025423,0,-3.09688913,-1.72108046,-18.0655818,-6.73764247,7.01629318,4.44569086,0,0,0,0
0.145,-0.41187569,6.39377513,90.50697572,0.58420144,0.9699572,-0.69481564,-3.83540391,-1.85722,-28.36354621,-6.96321784,9.18586328,2.02021187,0,-3.09797288,-1.72039867,-18.06556459,-6.73821103,7.01611909,4.44546516,0,0,0,0
0.15,-0.42319248,6.39549312,90.51139998,0.58413997,0.96994906,-0.69488989,-3.84580156,-1.870785,-28.36495132,-6.95738746,9.20393879,2.0167638,0,-3.10632457,-1.7035998,-18.06413167,-6.73291568,7.00772844,4.43001541,0,0,0,0
0.155,-0.4213064,6.3929644,90.51165879,0.58408916,0.96994058,-0.69495607,-3.84745046,-1.87191982,-28.3647714,-6.95809736,9.20395238,2.01674847,0,-3.10734767,-1.70286593,-18.0640172,-6.73348851,7.00747913,4.42980887,0,0,0,0
0.16,-0.43538779,6.39748788,90.51818225,0.58402812,0.96993725,-0.69503963,-3.86327598,-1.88783695,-28.36807148,-6.94973138,9.22106559,2.01559867,0,-3.12052838,-1.68275628,-18.05626654,-6.72491771,6.99632553,4.41483339,0,0,0,0
0.165,-0.43351773,6.39471539,90.51833876,0.58398107,0.96993015,-0.69511037,-3.86501741,-1.88878227,-28.36800038,-6.95039329,9.22106126,2.01560688,0,-3.12168587,-1.68198661,-18.05611956,-6.72546883,6.99612183,4.41461936,0,0,0,0
0.17,-0.4319379,6.39168246,90.51858555,0.58393844,0.96992339,-0.6951847,-3.86701204,-1.88976946,-28.36806683,-6.95067804,9.22129481,2.01559227,0,-3.12277643,-1.68106844,-18.05602454,-6.72587355,6.9959421,4.41437976,0,0,0,0
0.175,-0.45076026,6.42414068,90.53243594,0.58387524,0.96995327,-0.69530803,-3.92285252,-1.9082994,-28.40137104,-6.92981525,9.23754552,2.0348291,0,-3.1852975,-1.64879508,-18.00411679,-6.68131229,6.97329991,4.35492361,0,0,0,0
0.18,-0.44942321,6.42060931,90.53230253,0.58384507,0.96994723,-0.69538817,-3.92482856,-1.90889827,-28.4012212,-6.93002219,9.23768461,2.03506983,0,-3.18610844,-1.64815299,-18.00394016,-6.68214028,6.9732516,4.35471032,0,0,0,0
0.185,-0.45350738,6.40948255,90.53435564,0.58381697,0.96993259,-0.69548098,-3.93149783,-1.90906362,-28.40215498,-6.90415794,9.24595424,2.04257011,0,-3.18097453,-1.64123737,-17.99942383,-6.67935606,6.9775048,4.35016329,0,0,0,0
0.19,-0.45233402,6.40577588,90.53438907,0.58378978,0.96993006,-0.6955657,-3.93367183,-1.90953232,-28.40225025,-6.90466834,9.24587585,2.04269166,0,-3.18208719,-1.64058578,-17.99907891,-6.68025426,6.97744998,4.35009602,0,0,0,0
0.195,-0.45807977,6.39639506,90.5417637,0.58376247,0.96991748,-0.69566676,-3.94486205,-1.91012576,-28.41119316,-6.87568097,9.24949549,2.04970731,0,-3.17921485,-1.63235958,-17.98612748,-6.67715663,6.98473321,4.34884859,0,0,0,0
0.2,-0.45684897,6.39289705,90.54180464,0.58373653,0.9699128,-0.69574979,-3.94707947,-1.91073689,-28.41146013,-6.87618929,9.24932982,2.04980579,0,-3.18034058,-1.6318631,-17.98563915,-6.67807845,6.98474425,4.34883485,0,0,0,0
0.205,-0.45956401,6.39954298,90.56633034,0.58369624,0.96991885,-0.69585798,-3.98006793,-1.90653177,-28.45530608,-6.84363943,9.23779961,2.0738296,0,-3.18906834,-1.62943304,-17.93476962,-6.68514679,7.00220071,4.34138712,0,0,0,0
0.21,-0.458157,6.39584065,90.56607859,0.58366631,0.96991212,-0.69594115,-3.9820538,-1.90731679,-28.45556586,-6.84385451,9.23808025,2.07394078,0,-3.19016571,-1.62876933,-17.93482016,-6.68568423,7.00235839,4.34117118,0,0,0,0
0.215,-0.46389697,6.38565398,90.56563477,0.58363165,0.96989621,-0.69604522,-3.98807005,-1.91142027,-28.46277753,-6.82285932,9.24764939,2.08075974,0,-3.18884616,-1.61867146,-17.93368636,-6.68040593,7.01437274,4.33707069,0,0,0,0
0.22,-0.46239534,6.38227469,90.56556025,0.58359197,0.96989022,-0.6961262,-3.99016109,-1.91257226,-28.46290583,-6.82317836,9.24774187,2.08105541,0,-3.18986261,-1.6177712,-17.93326781,-6.68146197,7.01461852,4.33706544,0,0,0,0
0.225,-0.47861667,6.38695771,90.57843104,0.58353421,0.96988443,-0.6962237,-4.01001575,-1.93130405,-28.49139229,-6.8116233,9.25923201,2.11572881,0,-3.19367953,-1.59914448,-17.90127915,-6.6966994,7.04368886,4.332339,0,0,0,0
0.23,-0.47682573,6.38306187,90.57823757,0.58349466,0.96987817,-0.69631234,-4.01200051,-1.9321772,-28.49173974,-6.81189114,9.25953159,2.11589002,0,-3.1949029,-1.59827324,-17.90134339,-6.69739896,7.04376408,4.3322003,0,0,0,0
0.235,-0.48209239,6.37348117,90.57837137,0.58345359,0.96986292,-0.69641501,-4.01703686,-1.9370599,-28.50109327,-6.79407156,9.27084446,2.12281964,0,-3.19333548,-1.58891294,-17.90195076,-6.69303409,7.05404912,4.32927184,0,0,0,0
0.24,-0.48088329,6.36957863,90.57866172,0.58341998,0.96985964,-0.69650903,-4.01901835,-1.93792117,-28.50115663,-6.79480931,9.27092522,2.12314546,0,-3.19493738,-1.58826421,-17.90173666,-6.69428315,7.05413324,4.32925798,0,0,0,0
0.245,-0.49184463,6.39884486,90.5960273,0.58336829,0.96988421,-0.69664444,-4.06129592,-1.96354582,-28.6547039,-6.80509375,9.30933192,2.34677312,0,-3.24113713,-1.57202099,-17.86222843,-6.67991035,7.06376122,4.30422696,0,0,0,0
0.25,-0.49082367,6.39445054,90.5961374,0.58334337,0.96988124,-0.6967452,-4.06318715,-1.96435424,-28.65476443,-6.80590034,9.30943569,2.34669407,0,-3.24274941,-1.57174481,-17.86233007,-6.68088127,7.06381048,4.30413276,0,0,0,0
0.255,-0.49033187,6.38993389,90.59657583,0.58333077,0.96987962,-0.69684848,-4.0650081,-1.96475281,-28.65491256,-6.80648358,9.30974545,2.34662072,0,-3.24463171,-1.571704,-17.86260477,-6.6814891,7.06400515,4.30399683,0,0,0,0
0.26,-0.48791442,6.3819268,90.60202146,0.58332791,0.96987121,-0.69697534,-4.07080121,-1.9581738,-28.66392888,-6.79441926,9.32287992,2.34558615,0,-3.25238959,-1.57260226,-17.86692409,-6.66372854,7.07013356,4.30523007,0,0,0,0
0.265,-0.47408882,6.40701676,90.61040371,0.5833454,0.96990356,-0.69712011,-4.1150493,-1.9372149,-28.67538932,-6.78046923,9.32162715,2.35822848,0,-3.29841738,-1.5884566,-17.8609798,-6.64321591,7.065321,4.321785,0,0,0,0
0.27,-0.46202747,6.43135942,90.61194322,0.58337433,0.96993496,-0.69727596,-4.16055251,-1.91706114,-28.68738186,-6.76067288,9.31926998,2.36873191,0,-3.34784025,-1.60098651,-17.87072816,-6.61715059,7.06851052,4.33456599,0,0,0,0
0.275,-0.44682804,6.45333513,90.61566267,0.58342232,0.96996853,-0.69743515,-4.20267007,-1.892223,-28.69582446,-6.74423866,9.31738041,2.37404239,0,-3.39321151,-1.61925472,-17.87584035,-6.59398945,7.06936103,4.35214134,0,0,0,0
0.28,-0.43300392,6.49285759,90.61951165,0.58348046,0.97002041,-0.69761664,-4.27272204,-1.86397166,-28.70585868,-6.70980615,9.30747189,2.37676336,0,-3.4599464,-1.63722198,-17.89172179,-6.57007373,7.07977855,4.37900391,0,0,0,0
0.285,-0.41095405,6.5308009,90.62179032,0.58355773,0.97007321,-0.6977986,-4.33827669,-1.82653833,-28.70986135,-6.68132143,9.29928491,2.37561991,0,-3.52580228,-1.66525148,-17.90762441,-6.54419772,7.08858047,4.41361371,0,0,0,0
0.29,-0.38649752,6.57428784,90.62432013,0.58363904,0.9701334,-0.69799042,-4.41171298,-1.78525441,-28.71189262,-6.64978533,9.28850924,2.36955388,0,-3.59760829,-1.69681186,-17.92624986,-6.52016856,7.10179982,4.45660904,0,0,0,0
0.295,-0.35696737,6.61191519,90.62563669,0.58373228,0.97019094,-0.69816804,-4.47301232,-1.73996827,-28.70618533,-6.62909565,9.27875016,2.367797,0,-3.65871601,-1.73523764,-17.93592531,-6.5028443,7.11019297,4.49439041,0,0,0,0
0.3,-0.32687213,6.65183149,90.6283907,0.58382349,0.97024674,-0.69835766,-4.53903237,-1.69333389,-28.70880385,-6.60493465,9.27035093,2.35865521,0,-3.72702363,-1.77325473,-17.9505393,-6.47712039,7.12751538,4.5338329,0,0,0,0
0.305,-0.32899598,6.64660026,90.62799261,0.583882,0.97025789,-0.69849633,-4.5414881,-1.69167119,-28.70911003,-6.60590062,9.27035084,2.35839839,0,-3.73041341,-1.77463857,-17.950841,-6.47801027,7.12778247,4.53399084,0,0,0,0
0.31,-0.28514933,6.74738354,90.63335781,0.58398366,0.97036966,-0.69874371,-4.70437645,-1.61348771,-28.71541046,-6.52067536,9.24150882,2.34078997,0,-3.86984867,-1.83102,-17.98389158,-6.45075661,7.17704448,4.61398723,0,0,0,0
0.315,-0.26720525,6.79934271,90.63360819,0.58405343,0.97043137,-0.698926,-4.78320384,-1.58037722,-28.6938563,-6.49590826,9.24188973,2.31695898,0,-3.9444685,-1.85869609,-18.03111648,-6.43937052,7.19440223,4.70450348,0,0,0,0
0.32,-0.26824335,6.79424914,90.63336717,0.58409118,0.97043774,-0.69905816,-4.78536917,-1.57910987,-28.69398855,-6.49748176,9.24178565,2.31670316,0,-3.94726052,-1.85985064,-18.03125453,-6.4402239,7.19459052,4.70474879,0,0,0,0
0.325,-0.2280113,6.85324474,90.63877537,0.58416961,0.97050212,-0.69925615,-4.88403994,-1.51504732,-28.69580695,-6.44757265,9.22230649,2.2935129,0,-4.02931363,-1.91290794,-18.06233054,-6.4305246,7.24263116,4.78121184,0,0,0,0
0.33,-0.22892197,6.84857854,90.63862168,0.58420039,0.97050619,-0.69938307,-4.88618876,-1.51375153,-28.69561489,-6.44930366,9.22226439,2.29342653,0,-4.03203965,-1.91371097,-18.06232212,-6.43166386,7.24250041,4.78156329,0,0,0,0
0.335,-0.19400009,6.90848289,90.64064406,0.58426324,0.97056562,-0.69956355,-4.97987246,-1.45980461,-28.68214042,-6.4113024,9.21746012,2.28133504,0,-4.11146609,-1.9597458,-18.0887128,-6.42748798,7.27925945,4.84691038,0,0,0,0
0.34,-0.19454301,6.9039593,90.64042206,0.58428113,0.97056432,-0.6996839,-4.98190294,-1.45917935,-28.68227352,-6.41277198,9.21738831,2.28100175,0,-4.11400519,-1.96031353,-18.08885804,-6.42852528,7.27910082,4.84724148,0,0,0,0
0.345,-0.19445968,6.89971287,90.64029206,0.5842882,0.97055884,-0.69980044,-4.98415884,-1.45857618,-28.68240557,-6.41410731,9.21751365,2.2806518,0,-4.11658488,-1.96112023,-18.0890599,-6.42938013,7.27908871,4.84756851,0,0,0,0
0.35,-0.17370848,6.95908606,90.64333478,0.58431113,0.97060682,-0.69997015,-5.07568944,-1.4226809,-28.67329496,-6.37847131,9.21901404,2.25369789,0,-4.19567769,-1.98967262,-18.13180865,-6.42274206,7.31203822,4.92831455,0,0,0,0
0.355,-0.17309579,6.95484585,90.64338015,0.58429674,0.97059539,-0.70007819,-5.0773837,-1.42294708,-28.67314277,-6.37970471,9.21903218,2.25352729,0,-4.19759738,-1.98959664,-18.13197928,-6.42402103,7.31173127,4.9285105,0,0,0,0
0.36,-0.1722196,6.95072054,90.64351022,0.5842741,0.97058099,-0.70018239,-5.07913314,-1.42352484,-28.67297309,-6.38081611,9.21927607,2.25334175,0,-4.19927447,-1.98940428,-18.13225046,-6.42518769,7.3115192,4.92862017,0,0,0,0
0.365,-0.17114284,6.94660563,90.6437491,0.584243,0.97056414,-0.7002841,-5.0808097,-1.42443175,-28.6727752,-6.38180186,9.21974717,2.25314477,0,-4.20078156,-1.98890776,-18.13263339,-6.42634372,7.31137753,4.92863731,0,0,0,0
0.37,-0.19385251,6.92602642,90.63922448,0.58418883,0.97052019,-0.70036553,-5.05108305,-1.45947164,-28.65167731,-6.41154228,9.26308866,2.24304574,0,-4.1795063,-1.96187952,-18.15798623,-6.43616444,7.30733171,4.94044451,0,0,0,0
0.375,-0.19218669,6.9220002,90.6392546,0.58414491,0.97049987,-0.7004622,-5.05260249,-1.46063226,-28.65163297,-6.41212893,9.26320664,2.24290091,0,-4.18080225,-1.9611228,-18.15822957,-6.43721198,7.30725223,4.94039863,0,0,0,0
0.38,-0.21967452,6.88894718,90.63587275,0.58407151,0.97044691,-0.70053631,-5.01235507,-1.50110685,-28.63740655,-6.43335231,9.28793128,2.24072304,0,-4.1457844,-1.92643115,-18.17333457,-6.44557697,7.30162439,4.93738911,0,0,0,0
0.385,-0.21783898,6.88489247,90.6357814,0.58402457,0.97042481,-0.70063425,-5.01373459,-1.50217777,-28.63742205,-6.43401865,9.28809282,2.24057815,0,-4.14731386,-1.92560078,-18.17340909,-6.44673429,7.30149597,4.93732884,0,0,0,0
0.39,-0.25445421,6.84268944,90.62948814,0.58393849,0.97035837,-0.70069817,-4.95751117,-1.55713583,-28.62202555,-6.46733217,9.32358926,2.24217037,0,-4.10360302,-1.87848785,-18.17972848,-6.45232818,7.29508566,4.92532876,0,0,0,0
0.395,-0.25245945,6.83856695,90.62934535,0.58389035,0.97033636,-0.70079644,-4.9590536,-1.5581756,-28.62209242,-6.46811904,9.32376898,2.24203295,0,-4.10487748,-1.8775706,-18.17982725,-6.45329695,7.29497092,4.92518601,0,0,0,0
0.4,-0.29134706,6.78622498,90.61966813,0.5838049,0.97025882,-0.7008552,-4.8881463,-1.61820364,-28.60788969,-6.50824219,9.36168022,2.24937833,0,-4.05312082,-1.82584103,-18.18063653,-6.45282984,7.28923509,4.90301973,0,0,0,0
0.405,-0.3031658,6.73709161,90.61075414,0.58374443,0.97018913,-0.70091665,-4.82278359,-1.6455483,-28.60755728,-6.54274178,9.38879226,2.26377186,0,-4.00484383,-1.80488472,-18.17290896,-6.45170012,7.28002612,4.86627364,0,0,0,0
0.41,-0.30157231,6.73309501,90.61078424,0.58370026,0.97016823,-0.70101158,-4.82436246,-1.64680185,-28.60758054,-6.54340585,9.38884827,2.26375559,0,-4.00599944,-1.80381896,-18.17285719,-6.45258226,7.2801346,4.8660847,0,0,0,0
0.415,-0.32574623,6.70857312,90.61078584,0.58363662,0.97012171,-0.70111443,-4.80740568,-1.676344,-28.60698188,-6.53750133,9.4003425,2.26663407,0,-3.99204414,-1.76994734,-18.17166401,-6.44077764,7.29894812,4.85983466,0,0,0,0
0.42,-0.35758607,6.66056506,90.59827031,0.58357124,0.97005182,-0.70116283,-4.73205046,-1.73230834,-28.60081106,-6.59604228,9.44813025,2.27963431,0,-3.94505735,-1.72607539,-18.16073514,-6.43886637,7.2844361,4.8243781,0,0,0,0
0.425,-0.35627321,6.65672129,90.59828857,0.58353776,0.97003316,-0.70125424,-4.73338624,-1.73308228,-28.60049896,-6.59696598,9.44792872,2.27993423,0,-3.94613996,-1.72493281,-18.16041016,-6.43984426,7.28445952,4.82425383,0,0,0,0
0.43,-0.37707682,6.63064506,90.59580988,0.58348709,0.96998878,-0.70134736,-4.71193637,-1.7598374,-28.59013551,-6.5954658,9.45224478,2.29179131,0,-3.93119785,-1.69477611,-18.150213,-6.42617373,7.30298649,4.8206388,0,0,0,0
0.435,-0.37609304,6.6268202,90.59527735,0.5834595,0.96997304,-0.70143733,-4.71293512,-1.76087786,-28.59016778,-6.5967863,9.45257926,2.2917452,0,-3.93218377,-1.69378621,-18.14996572,-6.42726237,7.30273217,4.82042215,0,0,0,0
0.44,-0.41003902,6.55614167,90.57694146,0.58340425,0.9698826,-0.70146821,-4.60496594,-1.82312439,-28.58724898,-6.66956161,9.51347715,2.31871055,0,-3.86318265,-1.6445693,-18.13695167,-6.41799395,7.28060539,4.75676254,0,0,0,0
0.445,-0.40927867,6.55233152,90.57677948,0.58338131,0.96986758,-0.70155785,-4.60627611,-1.82385421,-28.58713017,-6.67012719,9.51322038,2.31894004,0,-3.8645039,-1.64365768,-18.13651716,-6.41866323,7.2809422,4.75672688,0,0,0,0
0.45,-0.42310256,6.53256108,90.57304175,0.58334857,0.96983491,-0.70165853,-4.59498518,-1.84017027,-28.58410424,-6.66091593,9.51432462,2.3267065,0,-3.86021499,-1.62150664,-18.1279071,-6.39846103,7.30086305,4.75560868,0,0,0,0
0.455,-0.42251144,6.52884921,90.57293054,0.58332933,0.96982224,-0.70174715,-4.59610204,-1.8408656,-28.58394571,-6.66206026,9.5144426,2.32684894,0,-3.86154936,-1.62061073,-18.12768651,-6.3992924,7.30075802,4.75541721,0,0,0,0
0.46,-0.45151707,6.48792949,90.55710962,0.5832864,0.96976813,-0.70180835,-4.53305413,-1.8910748,-28.5842428,-6.71114771,9.56092048,2.36110966,0,-3.83507461,-1.57599461,-18.11000792,-6.37314459,7.27970623,4.69081853,0,0,0,0
0.465,-0.4508594,6.48423157,90.55703598,0.583272,0.96975764,-0.7018969,-4.53443858,-1.89137841,-28.58417067,-6.71176712,9.56074316,2.36130602,0,-3.83658634,-1.57533399,-18.10972422,-6.37368555,7.27992079,4.69073803,0,0,0,0
0.47,-0.45580203,6.47071229,90.55529479,0.58325253,0.96973644,-0.70199918,-4.52979571,-1.89661958,-28.58359877,-6.70355556,9.56310114,2.36698498,0,-3.83946156,-1.56450935,-18.10671755,-6.35205781,7.29265374,4.68842916,0,0,0,0
0.475,-0.45534695,6.46712171,90.55495981,0.58324116,0.96972774,-0.70208622,-4.53097976,-1.89703969,-28.58352828,-6.70433431,9.56316721,2.36712995,0,-3.84121039,-1.56392647,-18.10650387,-6.35267386,7.29259334,4.68830665,0,0,0,0
0.48,-0.4609054,6.45508868,90.54845756,0.58322685,0.96970832,-0.70218662,-4.52505681,-1.90454123,-28.58239594,-6.7010461,9.5720305,2.37280806,0,-3.84822774,-1.55136039,-18.10645587,-6.32693377,7.29957731,4.68411108,0,0,0,0
0.485,-0.46068155,6.45162098,90.54838546,0.58321707,0.96970137,-0.70227194,-4.52628387,-1.90501131,-28.58215582,-6.70204185,9.57216537,2.37305754,0,-3.85011687,-1.55101362,-18.10640617,-6.32743916,7.2993334,4.68387162,0,0,0,0
0.49,-0.47733658,6.45405007,90.5307172,0.58319398,0.96969766,-0.70236771,-4.52366334,-1.93406876,-28.56801462,-6.72550488,9.59958639,2.40491191,0,-3.88401065,-1.51982424,-18.10224503,-6.27983037,7.27721843,4.65529165,0,0,0,0
0.495,-0.47720918,6.45042442,90.53070681,0.58319017,0.96969037,-0.70245259,-4.52497485,-1.93421646,-28.5683995,-6.72584754,9.59977781,2.40487074,0,-3.88585684,-1.51981694,-18.10243147,-6.28031661,7.27735707,4.65487861,0,0,0,0
0.5,-0.47768363,6.44160488,90.53139369,0.58318124,0.96967586,-0.70255533,-4.52635236,-1.93295921,-28.57650257,-6.71626062,9.60757892,2.40591672,0,-3.89295268,-1.5154398,-18.10773848,-6.26018859,7.28533377,4.64800181,0,0,0,0
0.505,-0.47741191,6.43814697,90.53123168,0.58317529,0.96966968,-0.70263879,-4.52775779,-1.93319309,-28.57653226,-6.71688397,9.60763739,2.40609538,0,-3.89494817,-1.51528898,-18.10756852,-6.26052605,7.28533654,4.64790519,0,0,0,0
0.51,-0.47830256,6.43089684,90.53063684,0.58316552,0.96965859,-0.70274495,-4.5300411,-1.93326118,-28.57884581,-6.70984533,9.61436978,2.4122896,0,-3.90890811,-1.50881926,-18.10622547,-6.23089909,7.29392755,4.64698747,0,0,0,0
0.515,-0.47795251,6.42739265,90.53037385,0.58315743,0.96965413,-0.70283094,-4.53163957,-1.93360005,-28.57884271,-6.71056885,9.6144023,2.41249159,0,-3.91105361,-1.50859311,-18.10593295,-6.23138273,7.29386138,4.64701001,0,0,0,0
0.52,-0.49237122,6.47269395,90.52536627,0.58313643,0.96969464,-0.70296844,-4.59304267,-1.95227762,-28.60414565,-6.7055172,9.63846515,2.46733229,0,-4.00023737,-1.47973983,-18.08164994,-6.16908415,7.28368231,4.61950418,0,0,0,0
0.525,-0.49196255,6.46864983,90.52557507,0.58312974,0.96969221,-0.70305609,-4.59428272,-1.95248439,-28.60418139,-6.70597234,9.63835409,2.46759546,0,-4.00206663,-1.4796006,-18.08143165,-6.16935069,7.28417822,4.61947319,0,0,0,0
0.53,-0.49272287,6.45497678,90.52578251,0.58311886,0.96967535,-0.70316343,-4.5915555,-1.95173509,-28.60885627,-6.69490934,9.63996621,2.47564435,0,-4.0079489,-1.47329935,-18.07040442,-6.14288222,7.30454894,4.6242926,0,0,0,0
0.535,-0.49427696,6.44854027,90.52981096,0.5831021,0.9696682,-0.70326356,-4.59392982,-1.9530705,-28.61453066,-6.69058657,9.64180194,2.48434151,0,-4.01521631,-1.46798621,-18.05827738,-6.12753828,7.31762984,4.62844634,0,0,0,0
0.54,-0.49381948,6.44480863,90.53004189,0.58309331,0.9696675,-0.70335088,-4.59556692,-1.95332746,-28.61463008,-6.69128254,9.64180185,2.48450562,0,-4.01689355,-1.46761349,-18.05805816,-6.1280001,7.3179363,4.62852342,0,0,0,0
0.545,-0.50056939,6.4430276,90.54076372,0.58306808,0.96966272,-0.70346045,-4.60634319,-1.95949827,-28.63012635,-6.68354349,9.64762498,2.50361139,0,-4.03394715,-1.45581857,-18.02967405,-6.1027129,7.34260801,4.64189717,0,0,0,0
0.55,-0.50008094,6.43889827,90.54074571,0.58305961,0.96966192,-0.70355416,-4.60802928,-1.95953976,-28.63047212,-6.68405063,9.64777144,2.5036625,0,-4.03579566,-1.45525316,-18.02972535,-6.10328276,7.34289203,4.64185477,0,0,0,0
0.555,-0.50347667,6.42723316,90.54476307,0.58304401,0.96964832,-0.70366608,-4.60987566,-1.96036347,-28.63906319,-6.6696856,9.65463321,2.50670525,0,-4.04037617,-1.4473457,-18.02805708,-6.08240638,7.35977424,4.64480078,0,0,0,0
0.56,-0.503133,6.42347781,90.5446772,0.58303583,0.96964778,-0.70375629,-4.61163824,-1.96060659,-28.63923148,-6.67030678,9.65463135,2.5068892,0,-4.0420773,-1.44686939,-18.02752797,-6.08305672,7.36006905,4.64511766,0,0,0,0
0.565,-0.5095875,6.41395956,90.55152399,0.58301799,0.96963523,-0.70386836,-4.6168726,-1.96422637,-28.64697271,-6.65474838,9.66057632,2.51370163,0,-4.04828219,-1.43636272,-18.01292183,-6.06370422,7.37973504,4.65624529,0,0,0,0
0.57,-0.50926601,6.41046772,90.55163005,0.58301027,0.96963421,-0.70395702,-4.61874494,-1.96452565,-28.64723816,-6.65546804,9.66057994,2.51384065,0,-4.04992819,-1.43613794,-18.01248472,-6.0646116,7.37981944,4.65646042,0,0,0,0
0.575,-0.50912417,6.40679677,90.55197778,0.58300274,0.96963253,-0.70404657,-4.6206793,-1.96485302,-28.64760728,-6.65582635,9.66075907,2.51397236,0,-4.05155217,-1.43585981,-18.01205037,-6.06520369,7.3801653,4.65671158,0,0,0,0
0.58,-0.51821159,6.40063167,90.56816859,0.58298112,0.96962124,-0.70416188,-4.63517969,-1.9676941,-28.66625654,-6.63089058,9.67390724,2.51956017,0,-4.05750432,-1.42471627,-17.99577901,-6.05145271,7.39905714,4.66757588,0,0,0,0
0.585,-0.51802869,6.39742381,90.56817641,0.58297696,0.96962029,-0.70424909,-4.63713315,-1.96795995,-28.66659525,-6.63176241,9.67380663,2.51969657,0,-4.05916614,-1.42484566,-17.995297,-6.05265782,7.39893726,4.6677433,0,0,0,0
0.59,-0.52526542,6.40922674,90.5917321,0.58295943,0.96962893,-0.70435495,-4.66979629,-1.96853018,-28.70056831,-6.61113132,9.68620692,2.53129543,0,-4.07227507,-1.42115102,-17.96787378,-6.06149768,7.41107042,4.67931145,0,0,0,0
0.595,-0.52488731,6.40610532,90.59167791,0.58295555,0.9696291,-0.70443754,-4.67139446,-1.96856253,-28.70081753,-6.61201587,9.68599756,2.53150074,0,-4.07388728,-1.42117635,-17.96784861,-6.06220855,7.41110322,4.67925849,0,0,0,0
0.6,-0.52464077,6.40307265,90.59171802,0.5829524,0.96962928,-0.70451772,-4.67310721,-1.96860838,-28.70118094,-6.61260939,9.6859912,2.53167058,0,-4.07532568,-1.42120446,-17.96778207,-6.06283596,7.41128358,4.67920849,0,0,0,0
0.605,-0.52450745,6.40012,90.59183976,0.58295047,0.9696294,-0.70459592,-4.67489202,-1.96858692,-28.70164878,-6.6129492,9.68617502,2.53181214,0,-4.07666651,-1.42116728,-17.96765161,-6.06346596,7.41160051,4.67917214,0,0,0,0
0.61,-0.52447626,6.3972787,90.59202852,0.58294989,0.96962945,-0.70467179,-4.67674298,-1.96849647,-28.70220849,-6.61306698,9.68653863,2.53193106,0,-4.07791351,-1.42108236,-17.96743397,-6.06412739,7.41205258,4.67915765,0,0,0,0
0.615,-0.52803659,6.39805607,90.60589169,0.5829474,0.96962344,-0.70476982,-4.6982748,-1.96371059,-28.72457648,-6.58587769,9.70653435,2.53727652,0,-4.0830081,-1.41898879,-17.9566891,-6.06526264,7.43502594,4.68039033,0,0,0,0
0.62,-0.5278666,6.39589515,90.6059864,0.58294804,0.96962475,-0.70483933,-4.69993497,-1.96350263,-28.72470808,-6.5869922,9.70621179,2.53758111,0,-4.08432637,-1.41897478,-17.95604621,-6.06646205,7.43502069,4.68059866,0,0,0,0
0.625,-0.52775642,6.39402901,90.60618977,0.58294858,0.96962533,-0.70490452,-4.70171512,-1.96336424,-28.7249085,-6.58797426,9.7060416,2.53789611,0,-4.08550043,-1.41910595,-17.9552225,-6.06769966,7.43521178,4.68084948,0,0,0,0
0.63,-0.52314628,6.42418314,90.63175931,0.58294562,0.96964677,-0.70498614,-4.74819533,-1.95223601,-28.76815569,-6.57775483,9.71800102,2.55844945,0,-4.11129928,-1.43069387,-17.91221602,-6.08905763,7.47722461,4.69107433,0,0,0,0
0.635,-0.52288742,6.42211414,90.63187421,0.58294397,0.96964822,-0.70504667,-4.7495486,-1.95216734,-28.76811272,-6.57855768,9.71775419,2.55881822,0,-4.11217878,-1.43052562,-17.91214977,-6.08961665,7.47703335,4.69105961,0,0,0,0
0.64,-0.5226878,6.42028564,90.63212056,0.58294298,0.96964882,-0.70510401,-4.75088013,-1.95205964,-28.76806184,-6.57937456,9.71760392,2.55918681,0,-4.11304435,-1.43040038,-17.91195027,-6.09028498,7.47698961,4.6910706,0,0,0,0
0.645,-0.52243271,6.41861983,90.63250505,0.5829408,0.96964926,-0.70515957,-4.75225519,-1.95196226,-28.76799248,-6.58026957,9.71754513,2.55954812,0,-4.11391117,-1.43029172,-17.91162407,-6.091082,7.47708386,4.6911025,0,0,0,0
0.65,-0.51920367,6.44155262,90.64747987,0.58293218,0.9696643,-0.70522597,-4.78287547,-1.94763628,-28.79392033,-6.58322897,9.73503484,2.58394823,0,-4.13580755,-1.43690923,-17.88719674,-6.10367197,7.50666176,4.69074195,0,0,0,0
0.655,-0.51889242,6.4398585,90.64747579,0.58292852,0.9696639,-0.70527763,-4.78393735,-1.94762155,-28.79390331,-6.58400915,9.73480224,2.58423952,0,-4.13657935,-1.4366805,-17.88705244,-6.10426435,7.50641309,4.6907491,0,0,0,0
0.66,-0.5185416,6.43830795,90.647649,0.58292392,0.96966356,-0.70532795,-4.78499815,-1.94765063,-28.79382593,-6.58496284,9.73464888,2.58452616,0,-4.13742335,-1.43657243,-17.88685209,-6.10498973,7.50625238,4.69073487,0,0,0,0
0.665,-0.51817591,6.43692281,90.64794527,0.58291917,0.96966321,-0.70537665,-4.78606427,-1.9476802,-28.79369341,-6.58612993,9.73457913,2.58480784,0,-4.13833143,-1.43657791,-17.88660254,-6.10585541,7.50616332,4.69069291,0,0,0,0
0.67,-0.51571599,6.44415305,90.65288466,0.58291172,0.96966944,-0.70541607,-4.79093338,-1.94778168,-28.7920927,-6.60065859,9.73659636,2.58935287,0,-4.14370597,-1.44082194,-17.88187911,-6.11468427,7.50711482,4.68950086,0,0,0,0
0.675,-0.51547134,6.44288026,90.65237058,0.5829108,0.96966965,-0.70545836,-4.79174483,-1.94777493,-28.79236088,-6.60126128,9.73693648,2.58936779,0,-4.14456288,-1.44077306,-17.88166938,-6.1153647,7.50725918,4.68943126,0,0,0,0
0.68,-0.51525851,6.44171742,90.65187859,0.58291074,0.96966924,-0.70550064,-4.7926172,-1.94775802,-28.79255197,-6.60217795,9.73737634,2.58938845,0,-4.14553762,-1.44091218,-17.88145511,-6.11623256,7.50744991,4.68929299,0,0,0,0
0.685,-0.50969549,6.45727696,90.64882363,0.58291538,0.96967825,-0.70553081,-4.80104142,-1.94703937,-28.79402393,-6.62566717,9.75707672,2.59418805,0,-4.15857373,-1.44844151,-17.88040265,-6.12940389,7.51974806,4.68005532,0,0,0,0
0.69,-0.50985523,6.45594735,90.64829684,0.58291823,0.96967649,-0.70556946,-4.80174299,-1.94704036,-28.79411464,-6.62600063,9.75731668,2.59430192,0,-4.15939281,-1.4484962,-17.88031853,-6.12985284,7.51982748,4.67995753,0,0,0,0
0.695,-0.50994534,6.45481918,90.64757516,0.58292189,0.96967481,-0.70560642,-4.80246855,-1.9470176,-28.79415133,-6.62654638,9.75766123,2.59440548,0,-4.16025647,-1.44868637,-17.88028624,-6.13048619,7.51985399,4.67977219,0,0,0,0
0.7,-0.50422887,6.46878288,90.63506461,0.58293804,0.96968302,-0.70563435,-4.81066867,-1.94574036,-28.78725873,-6.64363533,9.77605003,2.60404743,0,-4.17403446,-1.45518759,-17.89067338,-6.14014664,7.52334509,4.66467451,0,0,0,0
0.705,-0.50446171,6.46757744,90.63436622,0.58294257,0.96968036,-0.70566924,-4.8113105,-1.94578275,-28.78726963,-6.64393204,9.77624667,2.60418433,0,-4.17486863,-1.45536546,-17.89071509,-6.1404784,7.52327561,4.66451193,0,0,0,0
0.71,-0.49925376,6.47751054,90.61882224,0.58296032,0.96968597,-0.70570278,-4.81842211,-1.94391246,-28.77819863,-6.65340267,9.78893914,2.6156454,0,-4.18872125,-1.45991088,-17.90717008,-6.1420129,7.51726948,4.64826302,0,0,0,0
0.715,-0.49952145,6.47637356,90.61805585,0.58296516,0.96968325,-0.70573621,-4.81906651,-1.94400149,-28.77818958,-6.65371717,9.7890383,2.61574419,0,-4.18949793,-1.46020195,-17.90717718,-6.1423667,7.51705473,4.64813115,0,0,0,0
0.72,-0.49349856,6.48530177,90.60167447,0.58298479,0.96968983,-0.70576812,-4.82570082,-1.94061486,-28.76846944,-6.66112442,9.79739934,2.62577653,0,-4.20213494,-1.4656864,-17.92498708,-6.14372361,7.50386072,4.63260683,0,0,0,0
0.725,-0.49295539,6.4853164,90.59428979,0.58299238,0.96968749,-0.70580228,-4.8271473,-1.94081981,-28.76793969,-6.66051918,9.79908768,2.62706212,0,-4.20539248,-1.46601634,-17.9268448,-6.14353291,7.50169168,4.63062593,0,0,0,0
0.73,-0.49288272,6.48399161,90.59383135,0.58299457,0.96968106,-0.70583955,-4.82801319,-1.94091041,-28.7676549,-6.6609918,9.79921841,2.6272688,0,-4.20627898,-1.46657699,-17.92736335,-6.14389088,7.50123795,4.63019005,0,0,0,0
0.735,-0.48064026,6.4933685,90.57247273,0.58301654,0.96968907,-0.70587401,-4.83592245,-1.93098766,-28.75137346,-6.66580731,9.8080289,2.64045482,0,-4.22034299,-1.47841996,-17.95988557,-6.14371595,7.47868591,4.60701037,0,0,0,0
0.74,-0.48005814,6.49292188,90.56310418,0.58302303,0.96968292,-0.70591277,-4.83738486,-1.93129873,-28.74990755,-6.66452475,9.80853761,2.64204721,0,-4.22406118,-1.47814587,-17.96157944,-6.14305777,7.47672515,4.60563511,0,0,0,0
0.745,-0.47978784,6.49139633,90.56260477,0.58302007,0.96967594,-0.7059535,-4.83835323,-1.93144648,-28.74950679,-6.66490848,9.80856388,2.6423165,0,-4.22500517,-1.47856663,-17.96217781,-6.14330824,7.47633544,4.60520808,0,0,0,0
0.75,-0.46660788,6.49902725,90.53543391,0.58303955,0.96968123,-0.7059963,-4.84704173,-1.92028815,-28.72700524,-6.66309483,9.81275228,2.66006703,0,-4.24174739,-1.4891353,-18.00027189,-6.13657482,7.45675731,4.58079666,0,0,0,0
0.755,-0.46628944,6.5060831,90.51756716,0.58304303,0.96968321,-0.7060411,-4.85606393,-1.92296257,-28.71110711,-6.66260429,9.80972012,2.67141901,0,-4.25913454,-1.4855594,-18.01307064,-6.12670847,7.45296133,4.57331492,0,0,0,0
0.76,-0.46512207,6.5055262,90.51195745,0.58304326,0.96967785,-0.70608269,-4.85819137,-1.92221223,-28.71209491,-6.66125159,9.81191739,2.67102848,0,-4.26147481,-1.48631832,-18.01484413,-6.12761705,7.4510805,4.57187719,0,0,0,0
0.765,-0.45830159,6.50937505,90.50054067,0.58304761,0.96967541,-0.70612866,-4.86590392,-1.91563025,-28.70256673,-6.65761975,9.81585969,2.67886562,0,-4.27114639,-1.49201513,-18.03289324,-6.12464247,7.44607062,4.55989246,0,0,0,0
0.77,-0.45737383,6.50873928,90.49418607,0.58304301,0.96967013,-0.70616714,-4.86733266,-1.91587586,-28.7019275,-6.65678397,9.81567654,2.67956301,0,-4.27348515,-1.49205105,-18.03283565,-6.12538915,7.44579833,4.55976691,0,0,0,0
0.775,-0.45149826,6.51225653,90.47988311,0.58304543,0.96966695,-0.70621064,-4.87438057,-1.91113316,-28.68811938,-6.65290142,9.81486657,2.69054859,0,-4.28380319,-1.49562264,-18.04818325,-6.12077223,7.44829027,4.54971349,0,0,0,0
0.78,-0.45094616,6.51084777,90.47914281,0.58303249,0.9696615,-0.70624821,-4.87523809,-1.91139402,-28.68815061,-6.65313519,9.81490391,2.69051201,0,-4.2845385,-1.49551928,-18.04812166,-6.1213091,7.44817194,4.54971415,0,0,0,0
0.785,-0.44940163,6.51043835,90.47191259,0.58302676,0.96965604,-0.70628276,-4.87680373,-1.91099322,-28.6880116,-6.65160905,9.81597912,2.69101416,0,-4.28651658,-1.49586541,-18.04872304,-6.12274248,7.44822026,4.54885146,0,0,0,0
0.79,-0.44868058,6.50919552,90.47161921,0.5830123,0.96965083,-0.7063168,-4.87761928,-1.9112826,-28.68780302,-6.6518005,9.81603383,2.69114476,0,-4.287104,-1.49588123,-18.04894544,-6.12310768,7.44825252,4.54864142,0,0,0,0
0.795,-0.44794187,6.50807971,90.47100186,0.5829975,0.96964686,-0.70634822,-4.87839899,-1.91145384,-28.6876121,-6.65187384,9.81618276,2.69129617,0,-4.28767615,-1.4958863,-18.04918466,-6.12357453,7.44830537,4.54836537,0,0,0,0
0.8,-0.44073951,6.51326267,90.45789888,0.58299733,0.96964595,-0.70637795,-4.88662029,-1.90473597,-28.6757197,-6.64688463,9.82301588,2.70192014,0,-4.29374321,-1.502158,-18.06348378,-6.12965467,7.45435068,4.53263439,0,0,0,0
0.805,-0.44031857,6.51241555,90.45763371,0.58298577,0.96964356,-0.70640431,-4.88716131,-1.90503104,-28.67570748,-6.64712763,9.82297578,2.70192121,0,-4.29424606,-1.50207435,-18.06335448,-6.13002609,7.45430292,4.53260944,0,0,0,0
0.81,-0.43991411,6.51174561,90.45729869,0.58297496,0.96964143,-0.70642782,-4.88768934,-1.90533051,-28.67572831,-6.64731523,9.82301683,2.70190895,0,-4.29470054,-1.50198246,-18.06320431,-6.13056762,7.45420939,4.53253157,0,0,0,0
0.815,-0.43965645,6.511241,90.45690372,0.58296635,0.96964024,-0.70644934,-4.88827604,-1.90562933,-28.67578467,-6.64749521,9.82314687,2.70188202,0,-4.29512671,-1.50193855,-18.06301386,-6.13136012,7.4540458,4.53237671,0,0,0,0
0.82,-0.43961947,6.5112477,90.45630015,0.58296232,0.96963953,-0.70646839,-4.8891907,-1.90605753,-28.67593605,-6.64770892,9.82352586,2.70182039,0,-4.29548657,-1.50192825,-18.06265485,-6.13296319,7.45367677,4.53197152,0,0,0,0
0.825,-0.44318659,6.5204178,90.45913976,0.58295815,0.96964756,-0.7064784,-4.89936732,-1.90977772,-28.6771592,-6.64951728,9.83004841,2.70198759,0,-4.29711626,-1.50105616,-18.06051268,-6.15108683,7.45139098,4.52313426,0,0,0,0
0.83,-0.44332873,6.51996473,90.45893218,0.5829592,0.96964665,-0.70649541,-4.89976482,-1.90982344,-28.67733934,-6.64955847,9.830211,2.70192891,0,-4.29747571,-1.50102675,-18.06033875,-6.15137372,7.45147365,4.52297297,0,0,0,0
0.835,-0.44365906,6.51959317,90.4587519,0.58296363,0.96964716,-0.70651152,-4.90022251,-1.90985309,-28.6775326,-6.64960744,9.83040965,2.70186179,0,-4.29782513,-1.50102942,-18.06011929,-6.151903,7.45154323,4.52277543,0,0,0,0
0.84,-0.44422613,6.51930007,90.45855902,0.5829716,0.96964776,-0.70652767,-4.90082826,-1.90987289,-28.67776262,-6.6496607,9.83066815,2.70178111,0,-4.29814245,-1.50107104,-18.0598107,-6.15271084,7.45164705,4.52252132,0,0,0,0
0.845,-0.44498377,6.51913284,90.45838229,0.58298286,0.96964928,-0.70654287,-4.90155033,-1.90985834,-28.67801226,-6.64969738,9.83097533,2.70169897,0,-4.29838659,-1.50110472,-18.05940569,-6.15377249,7.45182781,4.52222689,0,0,0,0
0.85,-0.44590035,6.5192824,90.4582701,0.5829954,0.96964962,-0.70655608,-4.90249259,-1.90995481,-28.67833389,-6.64959502,9.83142982,2.70160258,0,-4.29852709,-1.50108606,-18.05875647,-6.15537544,7.4522211,4.52181721,0,0,0,0
0.855,-0.45402277,6.53110075,90.46923343,0.58300034,0.96965843,-0.70656527,-4.92047168,-1.91511527,-28.6844647,-6.64402021,9.84140518,2.70070228,0,-4.29767439,-1.49765237,-18.04470036,-6.18284938,7.46862992,4.5109706,0,0,0,0
0.86,-0.45463429,6.53066893,90.46900091,0.58301641,0.96966006,-0.70657902,-4.92063925,-1.9145607,-28.68469001,-6.64410862,9.84143741,2.70066921,0,-4.2980745,-1.49772608,-18.0443644,-6.18296875,7.4688825,4.51091756,0,0,0,0
0.865,-0.45526108,6.53027852,90.46885676,0.5830331,0.96966253,-0.70659114,-4.92099891,-1.91414436,-28.68490002,-6.64416786,9.84149761,2.70064986,0,-4.2982681,-1.49792989,-18.04391724,-6.18311554,7.46928663,4.51085517,0,0,0,0
0.87,-0.45593128,6.52992212,90.4688903,0.58305026,0.96966453,-0.70660264,-4.92140958,-1.91367675,-28.68508239,-6.64419051,9.84158489,2.70065904,0,-4.29837687,-1.49811418,-18.04338218,-6.18336271,7.46983326,4.51078736,0,0,0,0
0.875,-0.45662763,6.52963233,90.4692345,0.58306758,0.96966549,-0.70661291,-4.92187785,-1.91318856,-28.68527258,-6.64407829,9.84174459,2.70069963,0,-4.29840102,-1.49834211,-18.04261867,-6.18376629,7.47068581,4.51069498,0,0,0,0
0.88,-0.45685474,6.53258669,90.48640428,0.58307688,0.96966089,-0.70662734,-4.93480497,-1.90619418,-28.69740552,-6.62984729,9.84990278,2.6999456,0,-4.29250914,-1.50288706,-18.00676651,-6.20264143,7.50732279,4.50686475,0,0,0,0
0.885,-0.45748307,6.53237552,90.48682928,0.58309518,0.96966276,-0.70663463,-4.93502126,-1.90567867,-28.69753813,-6.63019211,9.84971984,2.69996162,0,-4.29252967,-1.50326694,-18.00671134,-6.20256701,7.50738642,4.50662909,0,0,0,0
0.89,-0.45183922,6.53361865,90.50171383,0.58310767,0.96966431,-0.70664364,-4.93985895,-1.89549799,-28.71683548,-6.62783021,9.84571497,2.69589748,0,-4.28924126,-1.51272523,-17.98502824,-6.20973223,7.51547228,4.49559625,0,0,0,0
0.895,-0.45266479,6.53346793,90.50198374,0.58312638,0.96966486,-0.70664736,-4.93986319,-1.89514959,-28.71670627,-6.62779896,9.84567113,2.69609346,0,-4.2892599,-1.51288251,-17.98487765,-6.20963702,7.51560274,4.49544761,0,0,0,0
0.9,-0.45350938,6.53315304,90.50255667,0.58314453,0.96966426,-0.70665274,-4.94002053,-1.89475097,-28.71656108,-6.62781326,9.84567082,2.69629999,0,-4.28928202,-1.51293351,-17.98467241,-6.2095884,7.51582858,4.49528965,0,0,0,0
0.905,-0.45557449,6.53228283,90.50945017,0.58315252,0.96966309,-0.70666038,-4.94138208,-1.8947961,-28.71568744,-6.62621029,9.84653018,2.69771498,0,-4.28814963,-1.51181125,-17.98197842,-6.20895936,7.51847922,4.49407805,0,0,0,0
0.91,-0.45631781,6.53203467,90.50948403,0.58316865,0.9696598,-0.70666642,-4.94153652,-1.89450597,-28.71588611,-6.62611898,9.84666609,2.69768632,0,-4.28824139,-1.51184209,-17.98151438,-6.20909087,7.51865788,4.49404883,0,0,0,0
0.915,-0.45705893,6.53174735,90.50992057,0.58318302,0.96965697,-0.70667317,-4.94176382,-1.89421067,-28.7160666,-6.62605719,9.84684634,2.69765807,0,-4.28833291,-1.51177966,-17.98106543,-6.20912912,7.51890395,4.49400077,0,0,0,0
0.92,-0.46486699,6.53202137,90.52616044,0.58318237,0.96965028,-0.70668942,-4.94951794,-1.89754564,-28.72932234,-6.61693028,9.85724079,2.69263199,0,-4.28848728,-1.50501007,-17.955607,-6.20843003,7.52789319,4.49282988,0,0,0,0
0.925,-0.46517692,6.53182469,90.52635269,0.58319199,0.96964593,-0.70669576,-4.94967585,-1.8971717,-28.72933043,-6.61720412,9.85716515,2.6926652,0,-4.28863193,-1.50495025,-17.95557524,-6.20844316,7.52787157,4.49272445,0,0,0,0
0.93,-0.46572534,6.53193681,90.53115998,0.5832017,0.96964394,-0.70670557,-4.95055762,-1.89667808,-28.72960606,-6.61873607,9.8569708,2.69276417,0,-4.28963197,-1.50545426,-17.95512847,-6.20673303,7.52779449,4.49119618,0,0,0,0
0.935,-0.46598236,6.53170373,90.53134767,0.58320953,0.96963996,-0.70671344,-4.95073185,-1.89624373,-28.7297687,-6.61892567,9.85703115,2.6927107,0,-4.28987088,-1.5052046,-17.95496229,-6.20668808,7.52774573,4.4911181,0,0,0,0
0.94,-0.46927303,6.53584147,90.54488368,0.58320947,0.96963961,-0.70673638,-4.95943963,-1.89656768,-28.7473538,-6.61691703,9.86811077,2.68499541,0,-4.30087709,-1.50116214,-17.93201039,-6.19280079,7.52201631,4.48469651,0,0,0,0
0.945,-0.4692437,6.53584392,90.54494494,0.58321261,0.96963615,-0.70673862,-4.95947623,-1.89654554,-28.74733117,-6.61694924,9.86809033,2.6850184,0,-4.30088088,-1.50109274,-17.93200166,-6.192807,7.52201118,4.48466756,0,0,0,0
0.95,-0.47044627,6.53595564,90.55050828,0.58321628,0.9696337,-0.70675288,-4.96114845,-1.89648625,-28.74617521,-6.617729,9.86787078,2.6862597,0,-4.30170093,-1.50049306,-17.93121329,-6.19175545,7.52190887,4.48243326,0,0,0,0
0.955,-0.47061794,6.53563044,90.55065802,0.58322082,0.96963096,-0.70676229,-4.96138084,-1.89632141,-28.74623629,-6.61781692,9.86793369,2.68626408,0,-4.30193436,-1.50031718,-17.93105492,-6.19182655,7.52185448,4.4823265,0,0,0,0
0.96,-0.47295572,6.53602874,90.55914619,0.58321672,0.96962951,-0.70677624,-4.96451495,-1.89734552,-28.74782305,-6.61667576,9.87100957,2.68606309,0,-4.30297613,-1.49849924,-17.92746256,-6.18986442,7.52071492,4.47937075,0,0,0,0
0.965,-0.47305297,6.53571199,90.55911109,0.58321872,0.9696255,-0.70678517,-4.96475839,-1.89715836,-28.74799409,-6.61673511,9.87112248,2.68599846,0,-4.30319621,-1.49819126,-17.92721251,-6.19005206,7.52061129,4.4793215,0,0,0,0
0.97,-0.48354641,6.54066016,90.57574255,0.58320778,0.96962742,-0.70680179,-4.97705916,-1.90439684,-28.76208375,-6.60932695,9.88507673,2.68010974,0,-4.30428033,-1.48931917,-17.90553594,-6.19675278,7.51218532,4.47203056,0,0,0,0
0.975,-0.48361174,6.54029231,90.57579593,0.58320901,0.96962301,-0.70681258,-4.97732209,-1.90433368,-28.7621383,-6.60954502,9.88500158,2.68011859,0,-4.30447956,-1.48925924,-17.905388,-6.19680859,7.51220867,4.4719061,0,0,0,0
0.98,-0.48392921,6.53998054,90.57641307,0.58321042,0.96962113,-0.70682738,-4.97789762,-1.90459206,-28.76231578,-6.60988052,9.88486795,2.68013756,0,-4.30469745,-1.48922646,-17.90482077,-6.19727223,7.51226381,4.47145032,0,0,0,0
0.985,-0.49325426,6.54705179,90.58791475,0.58320259,0.96962314,-0.70683331,-4.98842523,-1.91297631,-28.77430884,-6.60826983,9.88660265,2.67780117,0,-4.30131132,-1.48285496,-17.88297355,-6.21842828,7.51506963,4.45778433,0,0,0,0
0.99,-0.49769305,6.54844816,90.60067193,0.58320191,0.96961849,-0.70684418,-4.99444839,-1.91443971,-28.78687454,-6.60420077,9.89082301,2.67998796,0,-4.29568901,-1.48086723,-17.85790989,-6.23129007,7.52255349,4.43508956,0,0,0,0
0.995,-0.49776125,6.54794575,90.60054611,0.58320299,0.96961548,-0.70685952,-4.99502034,-1.91481773,-28.78689232,-6.6044471,9.89075751,2.68000578,0,-4.29555805,-1.48124511,-17.85771675,-6.23145707,7.52251728,4.43495182,0,0,0,0
1,-0.503905,6.5474881,90.60956417,0.58320214,0.96960802,-0.70686166,-4.99703951,-1.91961354,-28.79822322,-6.60204547,9.89271992,2.68097731,0,-4.27975555,-1.47965502,-17.83927707,-6.26158334,7.53323973,4.41537465,0,0,0,0
1.005,-0.5044624,6.54713798,90.60933083,0.58321058,0.96960543,-0.70687808,-4.99754656,-1.91977638,-28.79811327,-6.60250414,9.89255289,2.68114352,0,-4.27948462,-1.48007759,-17.83853069,-6.26286365,7.53303736,4.41526555,0,0,0,0
1.01,-0.51049139,6.5512575,90.61776741,0.58321386,0.96960577,-0.70687009,-5.00187749,-1.92519215,-28.79759756,-6.60506254,9.89217731,2.68370541,0,-4.26436456,-1.4807163,-17.8257787,-6.29978559,7.53610223,4.40928411,0,0,0,0
1.015,-0.51103192,6.55052783,90.61698009,0.58322206,0.96960291,-0.70688794,-5.0022637,-1.92545551,-28.79813377,-6.60498172,9.89239009,2.68345511,0,-4.26391668,-1.48116164,-17.82516962,-6.30109318,7.5364243,4.40918734,0,0,0,0
1.02,-0.51781709,6.54958897,90.62765956,0.58322635,0.96959598,-0.70688001,-5.00313982,-1.93026231,-28.80538644,-6.6029246,9.89712602,2.68076168,0,-4.23916233,-1.4825116,-17.81279748,-6.34714444,7.55091279,4.40334697,0,0,0,0
1.025,-0.51848999,6.54900454,90.62725344,0.58324005,0.96959217,-0.70689151,-5.00332456,-1.93015388,-28.80569886,-6.60309197,9.89719776,2.68060126,0,-4.23870154,-1.48311471,-17.81245473,-6.34753593,7.55119822,4.40340911,0,0,0,0
1.03,-0.52036012,6.5395228,90.64179295,0.58324931,0.96957744,-0.70687881,-4.99340979,-1.92919985,-28.81583257,-6.60462829,9.90252998,2.67489711,0,-4.20591778,-1.49024031,-17.7974331,-6.3894061,7.56939623,4.40536139,0,0,0,0
1.035,-0.52110779,6.53901854,90.6415168,0.58326669,0.96957495,-0.70688586,-4.99320616,-1.92900317,-28.81607118,-6.60468569,9.90254346,2.67476555,0,-4.20571382,-1.49090829,-17.79730919,-6.38942529,7.56955338,4.40548293,0,0,0,0
1.04,-0.5220646,6.53866092,90.6415633,0.58328823,0.96957383,-0.70688858,-4.99294986,-1.92865169,-28.81626657,-6.60480465,9.90262045,2.67464164,0,-4.20535901,-1.49156653,-17.79713887,-6.38968099,7.56967747,4.40561673,0,0,0,0
1.045,-0.52301326,6.53843331,90.64217037,0.58330944,0.96957244,-0.70688797,-4.99256576,-1.92822077,-28.81644269,-6.60497976,9.90281373,2.67449116,0,-4.20475778,-1.49220556,-17.79693057,-6.39008318,7.56978049,4.40579478,0,0,0,0
1.05,-0.52239521,6.5208179,90.66749056,0.58332451,0.96955052,-0.70686923,-4.97394559,-1.92226438,-28.83429291,-6.60866183,9.91915683,2.65897894,0,-4.16896841,-1.50235616,-17.77837527,-6.41583147,7.57174758,4.42286625,0,0,0,0
1.055,-0.52337279,6.51860974,90.67229249,0.58334704,0.96954666,-0.70686392,-4.97104445,-1.92131885,-28.83356475,-6.61034768,9.91664465,2.65922273,0,-4.16727483,-1.50304498,-17.78048685,-6.41245782,7.57423559,4.42330216,0,0,0,0
1.06,-0.52463631,6.51869854,90.67270601,0.58337672,0.96954486,-0.70685418,-4.970432,-1.92060318,-28.83365578,-6.61049634,9.9165729,2.65915637,0,-4.16714783,-1.50351808,-17.7805351,-6.41198635,7.57433135,4.42344654,0,0,0,0
1.065,-0.52522715,6.51597719,90.68247463,0.58339857,0.9695405,-0.70684809,-4.96739469,-1.91842735,-28.83447665,-6.61280929,9.91699992,2.65780105,0,-4.16591783,-1.50477877,-17.7813951,-6.4049756,7.57439443,4.4252357,0,0,0,0
1.07,-0.52358946,6.50662874,90.69165185,0.58342718,0.96952983,-0.7068418,-4.95625767,-1.91344421,-28.84697565,-6.61609001,9.92300317,2.64630821,0,-4.16276436,-1.50753293,-17.77097484,-6.38739017,7.56548539,4.43897684,0,0,0,0
1.075,-0.52511077,6.5059723,90.6996099,0.58345316,0.96952661,-0.70683202,-4.95527682,-1.91220051,-28.84635006,-6.61793533,9.92287522,2.64598371,0,-4.16191269,-1.50827155,-17.77136157,-6.38441988,7.56441142,4.43943892,0,0,0,0
1.08,-0.5247324,6.50010135,90.71053497,0.58347964,0.96951957,-0.7068283,-4.94905751,-1.90808558,-28.85610955,-6.61995417,9.92879247,2.63605073,0,-4.16157603,-1.50985144,-17.7617906,-6.36843842,7.55426137,4.44803429,0,0,0,0
1.085,-0.52608649,6.49950881,90.7181242,0.58350456,0.96951663,-0.70682144,-4.94832421,-1.9067423,-28.85572804,-6.62164125,9.92884716,2.63543456,0,-4.16148693,-1.51045781,-17.76152777,-6.36462691,7.55312054,4.44810176,0,0,0,0
1.09,-0.52541578,6.49499983,90.72820118,0.58352886,0.96951143,-0.70682295,-4.94391285,-1.9024205,-28.86469646,-6.62324969,9.93500755,2.62575866,0,-4.16372321,-1.51156487,-17.74995308,-6.34730873,7.54380922,4.45362474,0,0,0,0
1.095,-0.52664763,6.49466027,90.73481215,0.58355183,0.96951026,-0.70682011,-4.9436401,-1.9012586,-28.86412011,-6.62468754,9.93509313,2.62538894,0,-4.16391414,-1.51202666,-17.74951252,-6.34418312,7.54302573,4.45306809,0,0,0,0
1.1,-0.52655622,6.49110947,90.74473539,0.58357954,0.96950659,-0.70682466,-4.94078818,-1.89727117,-28.87233993,-6.62608159,9.94186593,2.61603228,0,-4.16675966,-1.51294108,-17.73570538,-6.32783239,7.53509616,4.45581879,0,0,0,0
1.105,-0.52752575,6.49078657,90.75118879,0.58359509,0.96950538,-0.70682708,-4.94064324,-1.89631922,-28.87192255,-6.62742937,9.94206677,2.61539816,0,-4.16721217,-1.51290551,-17.7342425,-6.32507082,7.53435114,4.45478189,0,0,0,0
1.11,-0.52850022,6.48786757,90.76152726,0.58361479,0.96950169,-0.70683455,-4.93873461,-1.89405045,-28.88080177,-6.62856847,9.94961632,2.60467652,0,-4.17029719,-1.51219404,-17.71482,-6.31058763,7.52827883,4.45472402,0,0,0,0
1.115,-0.52992872,6.48784275,90.76669355,0.58363267,0.96950216,-0.7068387,-4.93908749,-1.89350642,-28.8800369,-6.62979327,9.94933569,2.60445092,0,-4.17042283,-1.51193242,-17.71356795,-6.30945002,7.52826201,4.45296393,0,0,0,0
1.12,-0.53109017,6.48764643,90.76726543,0.5836586,0.96950203,-0.70684275,-4.93905593,-1.89298613,-28.88010069,-6.63005181,9.94940532,2.60432577,0,-4.17062062,-1.51219871,-17.71323308,-6.30921534,7.52830944,4.45283319,0,0,0,0
1.125,-0.53307021,6.48706072,90.77729263,0.5836676,0.96950036,-0.70685153,-4.93946168,-1.89311373,-28.8808128,-6.63205996,9.95107193,2.60242839,0,-4.17080701,-1.51144401,-17.70906952,-6.30559513,7.52946891,4.45223754,0,0,0,0
1.13,-0.53411451,6.4866686,90.77741286,0.58368909,0.96949973,-0.70686045,-4.93959916,-1.89264552,-28.88117174,-6.63232699,9.95129719,2.60209749,0,-4.17106967,-1.51139134,-17.70830264,-6.305661,7.52953833,4.45233454,0,0,0,0
1.135,-0.54507037,6.48862667,90.79922667,0.58368168,0.96949604,-0.70687201,-4.94389083,-1.90142892,-28.89777814,-6.63589758,9.96454703,2.5846069,0,-4.17130916,-1.50188605,-17.66917522,-6.30655143,7.5371035,4.45654203,0,0,0,0
1.14,-0.5456791,6.48812825,90.79977321,0.58369466,0.96949511,-0.70688596,-4.94427546,-1.90117128,-28.89775022,-6.63622725,9.96449049,2.58458549,0,-4.17149357,-1.50198601,-17.66901698,-6.3067219,7.53721503,4.45622893,0,0,0,0
1.145,-0.54855736,6.48950873,90.80957183,0.58369281,0.96949747,-0.7068978,-4.94721155,-1.90301244,-28.89775199,-6.63834491,9.9647408,2.58374123,0,-4.17044831,-1.50052147,-17.66458698,-6.31040234,7.54006285,4.45370878,0,0,0,0
1.15,-0.54912605,6.48906204,90.80953563,0.58369893,0.96949603,-0.70691576,-4.94774013,-1.90325432,-28.89810123,-6.63851697,9.96491204,2.58345114,0,-4.17063965,-1.50046448,-17.66371941,-6.31129559,7.54031697,4.45370647,0,0,0,0
1.155,-0.56146793,6.4981889,90.82597024,0.58368506,0.9695016,-0.706917,-4.95856218,-1.91543201,-28.90545284,-6.64244933,9.97077349,2.57628073,0,-4.16519977,-1.49252301,-17.63683275,-6.34021407,7.55158411,4.45479725,0,0,0,0
1.16,-0.56654253,6.49885739,90.84194216,0.5836761,0.96949635,-0.70694061,-4.96422161,-1.91755581,-28.92488537,-6.63957299,9.98310139,2.56457606,0,-4.16191169,-1.48945581,-17.61296928,-6.34871714,7.57111518,4.45001372,0,0,0,0
1.165,-0.56768908,6.50049211,90.8498824,0.58366912,0.96950057,-0.70695075,-4.96654659,-1.91854371,-28.92330343,-6.64272725,9.9820256,2.56579382,0,-4.16054474,-1.48968005,-17.60887094,-6.3536925,7.57150751,4.44893172,0,0,0,0
1.17,-0.56798372,6.50033013,90.85036928,0.58366743,0.96950107,-0.70696709,-4.96724563,-1.91903363,-28.92369857,-6.64304858,9.98225725,2.56556395,0,-4.16042818,-1.48959789,-17.60766497,-6.35532932,7.57169797,4.44897633,0,0,0,0
1.175,-0.57859385,6.50828145,90.87153162,0.58365313,0.96950561,-0.70696971,-4.97762263,-1.92805203,-28.93978565,-6.64634172,9.9931135,2.55660396,0,-4.15077615,-1.48529914,-17.57790338,-6.38981686,7.5835205,4.4505737,0,0,0,0
1.18,-0.57907407,6.50786477,90.88056833,0.58364188,0.96950497,-0.70698141,-4.9785099,-1.92801293,-28.94066872,-6.64791421,9.99383072,2.55650347,0,-4.14954277,-1.48547536,-17.57664886,-6.38961757,7.58632656,4.44967156,0,0,0,0
1.185,-0.58452223,6.5101458,90.90144581,0.583629,0.96950299,-0.706989,-4.98300121,-1.93149596,-28.96221169,-6.65067884,10.00506973,2.54697395,0,-4.14108819,-1.48458269,-17.54763862,-6.40912122,7.59891058,4.45365004,0,0,0,0
1.19,-0.58486961,6.50950617,90.90781814,0.58362601,0.96950158,-0.70700126,-4.98338651,-1.93120924,-28.9627038,-6.65189326,10.00508078,2.54739049,0,-4.14030813,-1.4849924,-17.54687578,-6.40867119,7.60028613,4.45298506,0,0,0,0
1.195,-0.58799166,6.50899981,90.92761889,0.58361747,0.96949653,-0.70701104,-4.98482006,-1.93212491,-28.98365292,-6.65475259,10.01303309,2.54070365,0,-4.13344015,-1.48530569,-17.52213078,-6.41846607,7.60738594,4.45684823,0,0,0,0
1.2,-0.58855742,6.50840706,90.93339782,0.58362244,0.96949418,-0.70702063,-4.9849514,-1.93156738,-28.98411605,-6.65595608,10.01294626,2.54125813,0,-4.13298806,-1.48567329,-17.52171722,-6.41746356,7.60822464,4.45615369,0,0,0,0
1.205,-0.58944039,6.50775583,90.94244271,0.58362642,0.96948891,-0.70703136,-4.98520243,-1.93092659,-28.98714051,-6.65809483,10.01418942,2.54032878,0,-4.13238297,-1.48621428,-17.51896523,-6.41599178,7.6090309,4.45637627,0,0,0,0
1.21,-0.59058786,6.50610126,90.95901273,0.58362874,0.96948188,-0.70704729,-4.9848363,-1.92964705,-29.00905897,-6.66152537,10.02273443,2.53093458,0,-4.13122543,-1.4872189,-17.49776124,-6.41313893,7.60842933,4.46230957,0,0,0,0
1.215,-0.59164211,6.505745,90.96495145,0.58364347,0.96947712,-0.70705424,-4.98512156,-1.92892235,-29.00879642,-6.6627157,10.02229511,2.53170844,0,-4.13102002,-1.48788214,-17.49782956,-6.41160934,7.60876214,4.46142706,0,0,0,0
1.22,-0.59217219,6.50472476,90.97281096,0.58365636,0.96947089,-0.70706748,-4.98520129,-1.92736618,-29.01087983,-6.66436419,10.02299028,2.53109946,0,-4.13130127,-1.48891809,-17.49659621,-6.40819787,7.6084675,4.46101869,0,0,0,0
1.225,-0.5901204,6.50233474,90.98490747,0.58367315,0.96946459,-0.70708325,-4.98397708,-1.92205258,-29.02825601,-6.66644503,10.02925343,2.5232316,0,-4.13324583,-1.49266775,-17.4815972,-6.39747234,7.6021543,4.46365498,0,0,0,0
1.23,-0.59100831,6.50168674,90.99076819,0.58368909,0.96945976,-0.7070975,-4.98441579,-1.92111612,-29.02798057,-6.66774208,10.02886584,2.52382488,0,-4.13346084,-1.49347205,-17.4813477,-6.39596555,7.60185803,4.46259778,0,0,0,0
1.235,-0.59079266,6.5004369,90.99821425,0.58370461,0.9694541,-0.70711324,-4.98438298,-1.91864223,-29.03030164,-6.66926872,10.03012595,2.52286611,0,-4.13409792,-1.49525585,-17.47965435,-6.39181611,7.60020552,4.46169854,0,0,0,0
1.24,-0.59170205,6.49977566,90.99857993,0.58372848,0.96945009,-0.70712802,-4.98437793,-1.91804873,-29.0306088,-6.66952644,10.03027408,2.52271489,0,-4.13460294,-1.49589398,-17.47940959,-6.39161259,7.59999066,4.46165533,0,0,0,0
1.245,-0.58534573,6.49597501,91.01163262,0.58374892,0.96944452,-0.70714892,-4.9818353,-1.90763858,-29.04609772,-6.67224878,10.03992092,2.51385402,0,-4.13734513,-1.5040748,-17.46543981,-6.37616523,7.5883986,4.46233785,0,0,0,0
1.25,-0.58598609,6.49514081,91.01713682,0.58376595,0.96944221,-0.70716538,-4.98216533,-1.90645176,-29.0461486,-6.67341614,10.03962796,2.51411342,0,-4.13764615,-1.50497347,-17.46388625,-6.37474421,7.58743346,4.46095123,0,0,0,0
1.255,-0.58685518,6.49447294,91.01751878,0.58378889,0.96943923,-0.70718068,-4.98216823,-1.90588634,-29.0463139,-6.67366347,10.03971714,2.51403768,0,-4.13815346,-1.50548613,-17.46367054,-6.37468777,7.58726271,4.46083966,0,0,0,0
1.26,-0.58159633,6.49121885,91.02890584,0.58380993,0.96943537,-0.70720049,-4.98031499,-1.89693902,-29.05812943,-6.67576452,10.04883836,2.50684124,0,-4.13974756,-1.51272755,-17.44951513,-6.36360951,7.5771467,4.45894965,0,0,0,0
1.265,-0.58260853,6.49069739,91.0295057,0.5838342,0.96943383,-0.70721272,-4.98032779,-1.89638082,-29.05807303,-6.67607195,10.04873731,2.50691068,0,-4.14016765,-1.51306625,-17.44935773,-6.36367975,7.5771018,4.45873319,0,0,0,0
1.27,-0.58299197,6.48992089,91.03653975,0.58385328,0.96943271,-0.70722638,-4.98045287,-1.89464128,-29.05838381,-6.67785053,10.0494911,2.50659049,0,-4.14043665,-1.51455311,-17.44724457,-6.3618381,7.57611546,4.45724228,0,0,0,0
1.275,-0.58415703,6.48931701,91.0366371,0.58388332,0.96943201,-0.70723846,-4.98048034,-1.89394088,-29.05860832,-6.67813582,10.04963623,2.50645641,0,-4.14088514,-1.51511438,-17.44686677,-6.36190093,7.57598164,4.45719792,0,0,0,0
1.28,-0.58505552,6.48889951,91.03707582,0.58390894,0.96942962,-0.70724912,-4.98043029,-1.89326612,-29.05879555,-6.67845131,10.04984676,2.50631422,0,-4.14126627,-1.51560303,-17.44650436,-6.36186285,7.57585853,4.45718867,0,0,0,0
1.285,-0.5813082,6.48826075,91.04996125,0.58393277,0.96942793,-0.70725958,-4.97991978,-1.88590503,-29.06974313,-6.6833922,10.06181376,2.49700016,0,-4.1422867,-1.52230473,-17.42641572,-6.35697673,7.57121896,4.4604295,0,0,0,0
1.29,-0.58266883,6.48782124,91.05027317,0.58396338,0.96942561,-0.70727033,-4.97999026,-1.88535816,-29.06973226,-6.6836382,10.06169992,2.49701996,0,-4.14258972,-1.52275536,-17.42626381,-6.3570483,7.57132489,4.46030534,0,0,0,0
1.295,-0.58398239,6.48744701,91.05100599,0.5839932,0.96942606,-0.70727883,-4.98006533,-1.88475849,-29.06969618,-6.68399532,10.06162943,2.49701014,0,-4.14288135,-1.52311312,-17.42594068,-6.35706379,7.57150619,4.46025483,0,0,0,0
1.3,-0.58592879,6.48744268,91.05824062,0.58401717,0.969425,-0.70728724,-4.98087424,-1.88432502,-29.06975948,-6.68593506,10.06215578,2.49607697,0,-4.14311634,-1.52336327,-17.42136257,-6.35636382,7.5732508,4.46132757,0,0,0,0
1.305,-0.58729679,6.48715655,91.05812887,0.58404951,0.96942583,-0.7072951,-4.98088409,-1.8836324,-29.069968,-6.68615281,10.06225447,2.49591688,0,-4.14341367,-1.52369122,-17.42085581,-6.35648659,7.57333963,4.46150107,0,0,0,0
1.31,-0.58863852,6.48688013,91.05826498,0.58408106,0.96942734,-0.70730218,-4.98091602,-1.88298089,-29.07011553,-6.68643269,10.0623813,2.49576739,0,-4.14369746,-1.52402514,-17.42030269,-6.35653102,7.57346826,4.46173797,0,0,0,0
1.315,-0.59000875,6.48659907,91.05859497,0.58411258,0.96943,-0.7073096,-4.98096326,-1.88232603,-29.07022159,-6.68676088,10.06254661,2.49562051,0,-4.14397184,-1.52435636,-17.41968221,-6.35649551,7.57363933,4.46204509,0,0,0,0
1.32,-0.59436091,6.4870011,91.07327241,0.58413217,0.96942949,-0.70732267,-4.98350115,-1.88299016,-29.07746099,-6.68904601,10.07371537,2.48555741,0,-4.14602967,-1.52233684,-17.39105001,-6.35224078,7.58113965,4.47776165,0,0,0,0
1.325,-0.59579775,6.48665793,91.07354827,0.58416548,0.9694334,-0.70733043,-4.98349265,-1.88232009,-29.077527,-6.68921342,10.07369926,2.48550036,0,-4.14636727,-1.52279892,-17.39104364,-6.35226967,7.58123928,4.47768432,0,0,0,0
1.33,-0.59701918,6.48628988,91.07402407,0.58419429,0.96943805,-0.70733984,-4.98361048,-1.88172072,-29.0775871,-6.68936746,10.07375228,2.48541789,0,-4.1465637,-1.52310277,-17.39094879,-6.35210061,7.58141976,4.47768202,0,0,0,0
1.335,-0.59945453,6.48445854,91.08160171,0.58421752,0.96943983,-0.70735631,-4.98469478,-1.88078244,-29.07890892,-6.68740156,10.07602675,2.48346023,0,-4.14676761,-1.52216382,-17.38766558,-6.3474581,7.58450449,4.47934265,0,0,0,0
1.34,-0.60072786,6.48398002,91.0813946,0.58424788,0.96944445,-0.70736754,-4.98482044,-1.88017419,-29.07911482,-6.68743606,10.07612118,2.48330523,0,-4.14703174,-1.52244604,-17.38724307,-6.34741157,7.58459253,4.4795247,0,0,0,0
1.345,-0.60198991,6.48336029,91.08145069,0.58427701,0.96944845,-0.70738055,-4.98503551,-1.87957219,-29.07928131,-6.68743306,10.07623592,2.48317917,0,-4.14723831,-1.5226815,-17.38683931,-6.34714983,7.58475494,4.47971621,0,0,0,0
1.35,-0.60329496,6.48253901,91.08180692,0.58430573,0.96945104,-0.70739511,-4.98529715,-1.87899746,-29.07945147,-6.68727452,10.07639327,2.48305457,0,-4.1474489,-1.5229017,-17.38639382,-6.34662318,7.5850163,4.47994603,0,0,0,0
1.355,-0.60721197,6.47579075,91.09250475,0.58432428,0.96944626,-0.70742341,-4.98613639,-1.8775038,-29.08276124,-6.67690606,10.0800674,2.48064987,0,-4.14696904,-1.51934131,-17.37851592,-6.33327335,7.59030897,4.48468197,0,0,0,0
1.36,-0.60842334,6.47499715,91.09218856,0.58435238,0.96944808,-0.7074416,-4.98648266,-1.87702623,-29.0830291,-6.67691669,10.08001661,2.48048527,0,-4.14727899,-1.51973896,-17.37795833,-6.3333093,7.59027037,4.48488118,0,0,0,0
1.365,-0.60964997,6.47402334,91.09219949,0.58437981,0.96944927,-0.70746026,-4.98689179,-1.8765405,-29.08329411,-6.67677111,10.07996823,2.48034868,0,-4.1475088,-1.52011109,-17.37745993,-6.3330581,7.59034088,4.48506472,0,0,0,0
1.37,-0.61095697,6.47279677,91.09252943,0.58440748,0.96945005,-0.70748068,-4.9873313,-1.87601096,-29.08359178,-6.67640423,10.07992473,2.48022753,0,-4.14770762,-1.52048101,-17.3769848,-6.33252599,7.59052714,4.48524704,0,0,0,0
1.375,-0.61471378,6.46183255,91.10552214,0.58442391,0.96943991,-0.70751704,-4.98813895,-1.87229894,-29.09074905,-6.65759556,10.08016034,2.47763018,0,-4.14443581,-1.51685476,-17.36760397,-6.3159498,7.59567442,4.48969122,0,0,0,0
1.38,-0.61588366,6.46084046,91.105245,0.58445199,0.96944027,-0.70753743,-4.98851801,-1.87182865,-29.09111641,-6.65750445,10.07992037,2.47746454,0,-4.14473287,-1.51747277,-17.36690234,-6.31612344,7.59553878,4.489879,0,0,0,0
1.385,-0.61704938,6.4596855,91.10537419,0.58447959,0.96944095,-0.70755697,-4.98891742,-1.87125498,-29.09151316,-6.65719515,10.0797199,2.47732453,0,-4.14486978,-1.51802777,-17.36628176,-6.31597206,7.59550702,4.49004676,0,0,0,0
1.39,-0.61833737,6.44509381,91.12170351,0.58449908,0.96942896,-0.70759356,-4.98894139,-1.86252685,-29.10520218,-6.63131487,10.07640618,2.4729771,0,-4.13645285,-1.51816954,-17.34907745,-6.30143975,7.59612266,4.49586438,0,0,0,0
1.395,-0.61940227,6.44421109,91.12164226,0.58452704,0.96942957,-0.70761232,-4.98930605,-1.86195944,-29.10550108,-6.63154887,10.07604482,2.47286016,0,-4.13662246,-1.51888888,-17.34850724,-6.30176971,7.59592445,4.49591151,0,0,0,0
1.4,-0.62042847,6.44309539,91.12198163,0.58455412,0.96943,-0.70763115,-4.98955624,-1.86129778,-29.10587795,-6.63147646,10.07577275,2.47274222,0,-4.136771,-1.51960005,-17.34799207,-6.30183298,7.59576024,4.4959574,0,0,0,0
1.405,-0.61187469,6.42315508,91.14960407,0.58457489,0.96941741,-0.70765165,-4.98265071,-1.84044685,-29.13567661,-6.60701224,10.05488241,2.46305939,0,-4.11341387,-1.53409282,-17.30750318,-6.3009586,7.58512497,4.49775575,0,0,0,0
1.41,-0.61296978,6.42203572,91.14970584,0.58460166,0.96941765,-0.70767066,-4.9829401,-1.83992107,-29.13583437,-6.60711141,10.05496506,2.46302185,0,-4.11359436,-1.53459894,-17.30759073,-6.30079768,7.58531597,4.49748288,0,0,0,0
1.415,-0.61402937,6.42068428,91.15018209,0.5846282,0.96941591,-0.70768893,-4.98303714,-1.83928796,-29.13608845,-6.60690457,10.05517477,2.4629685,0,-4.11383411,-1.53514629,-17.30773041,-6.30041199,7.58549168,4.49720297,0,0,0,0
1.42,-0.61163675,6.40571781,91.1578275,0.58465072,0.96939895,-0.70771806,-4.97652023,-1.83015564,-29.14745195,-6.59091305,10.06141177,2.45981184,0,-4.10425207,-1.53812036,-17.30206224,-6.28819244,7.58443853,4.49406075,0,0,0,0
1.425,-0.61186457,6.40289732,91.16467584,0.58467133,0.96939564,-0.70773462,-4.97535722,-1.82805852,-29.14776708,-6.59149525,10.05984443,2.4604413,0,-4.10188988,-1.54018239,-17.29989478,-6.28739134,7.58299206,4.49296411,0,0,0,0
1.43,-0.6127935,6.40183067,91.16463304,0.58469554,0.96939099,-0.70775324,-4.97540552,-1.82749363,-29.14808056,-6.59149931,10.05985101,2.46035436,0,-4.10214317,-1.54074869,-17.29958902,-6.28750266,7.58281868,4.49293762,0,0,0,0
1.435,-0.61365405,6.40064028,91.16494837,0.5847191,0.96938629,-0.70777158,-4.97544348,-1.82684869,-29.14844739,-6.59138665,10.05993979,2.46025855,0,-4.1023155,-1.54138245,-17.29934001,-6.28742688,7.58259998,4.49289076,0,0,0,0
1.44,-0.60731446,6.38358066,91.17880978,0.58474386,0.96936889,-0.70779586,-4.96699691,-1.81206402,-29.16762016,-6.57533796,10.06365795,2.45480824,0,-4.08688368,-1.55078982,-17.28339698,-6.27975835,7.57003921,4.49337366,0,0,0,0
1.445,-0.60780289,6.38205777,91.18474475,0.58476054,0.96936393,-0.70781281,-4.96635944,-1.81116761,-29.1674363,-6.57755143,10.06053213,2.45573585,0,-4.08518401,-1.55251199,-17.28192002,-6.28102476,7.56976267,4.49174751,0,0,0,0
1.45,-0.60890329,6.3809439,91.18468896,0.58478501,0.96935863,-0.70783682,-4.96654794,-1.81072474,-29.16760229,-6.57777258,10.06043946,2.45570587,0,-4.08568124,-1.55317834,-17.28176242,-6.28136391,7.56967271,4.4916559,0,0,0,0
1.455,-0.60986971,6.3798922,91.18478715,0.58480771,0.96935214,-0.707859,-4.96680945,-1.81030725,-29.16776858,-6.57795895,10.06038946,2.45567637,0,-4.08605541,-1.55384491,-17.28167738,-6.28161389,7.56954968,4.49153348,0,0,0,0
1.46,-0.61089842,6.37865912,91.18514184,0.58483217,0.96934595,-0.70788422,-4.96711982,-1.80972675,-29.16804112,-6.57805552,10.06039652,2.45562876,0,-4.08640116,-1.55467856,-17.28165231,-6.28189091,7.56930407,4.49130093,0,0,0,0
1.465,-0.60620676,6.37164855,91.19481758,0.58486256,0.96933751,-0.70791398,-4.96772006,-1.79789995,-29.18225516,-6.56600862,10.06328451,2.4525797,0,-4.07675933,-1.56427568,-17.27843006,-6.28652733,7.55748753,4.4835361,0,0,0,0
1.47,-0.60741381,6.37040343,91.19503309,0.58488909,0.9693338,-0.7079432,-4.9680608,-1.79745944,-29.18220446,-6.56643159,10.06300528,2.45269623,0,-4.07738108,-1.5649802,-17.27829574,-6.28684637,7.55748771,4.48338831,0,0,0,0
1.475,-0.60876893,6.36908344,91.19525983,0.58491929,0.96933183,-0.70797345,-4.96852103,-1.79695558,-29.18217545,-6.5667981,10.06280141,2.4528082,0,-4.07800954,-1.5657829,-17.27824551,-6.28718844,7.55744434,4.48317814,0,0,0,0
1.48,-0.61008701,6.36793369,91.19548392,0.58494818,0.96933026,-0.70800258,-4.9689929,-1.79641305,-29.18216787,-6.56703755,10.06267995,2.45291609,0,-4.07855266,-1.56652357,-17.27825555,-6.28753652,7.55737584,4.48292874,0,0,0,0
1.485,-0.61149448,6.36681389,91.19569837,0.58497837,0.96933007,-0.70803202,-4.96954139,-1.7957892,-29.18217835,-6.56718562,10.06263008,2.45302669,0,-4.07907237,-1.56724455,-17.2782973,-6.28793446,7.55730233,4.48264205,0,0,0,0
1.49,-0.61294645,6.36573419,91.19587821,0.58501031,0.96933137,-0.70806096,-4.97015662,-1.79512544,-29.1822015,-6.56726142,10.06264573,2.45313221,0,-4.07956156,-1.56790947,-17.27833665,-6.2883665,7.55725704,4.48235789,0,0,0,0
1.495,-0.6144402,6.36471856,91.19602712,0.58504325,0.96933381,-0.70808928,-4.97083473,-1.79443045,-29.18223592,-6.56725467,10.06272252,2.45323554,0,-4.0800043,-1.568518,-17.27834826,-6.28882245,7.55726502,4.48208713,0,0,0,0
1.5,-0.61597682,6.36376417,91.19614131,0.58507702,0.96933694,-0.70811714,-4.9715761,-1.79370846,-29.18228135,-6.56716393,10.06285814,2.45333678,0,-4.0804031,-1.56907336,-17.27831037,-6.28929442,7.5573478,4.48184275,0,0,0,0
1.505,-0.61755588,6.36285663,91.19621579,0.58511156,0.96934034,-0.7081447,-4.97238179,-1.79296313,-29.18233727,-6.56699136,10.06305156,2.45343532,0,-4.08076803,-1.56958828,-17.27820791,-6.28977481,7.55751935,4.4816344,0,0,0,0
1.51,-0.61916921,6.36197958,91.1962492,0.58514675,0.96934374,-0.70817211,-4.9732507,-1.79219539,-29.18240158,-6.56674145,10.06330283,2.45353105,0,-4.08111234,-1.5700801,-17.27803473,-6.29025743,7.55778407,4.48146583,0,0,0,0
1.515,-0.62405039,6.36473184,91.20156665,0.58518346,0.96934374,-0.70821165,-4.99039404,-1.78802997,-29.18457387,-6.54240999,10.0749325,2.45587908,0,-4.08107659,-1.56911922,-17.27065653,-6.30112499,7.56943096,4.4782775,0,0,0,0
1.52,-0.62551851,6.36404493,91.20173192,0.58521923,0.9693483,-0.70823818,-4.99115346,-1.7871614,-29.18455617,-6.54310862,10.07467304,2.45592924,0,-4.08151715,-1.56978217,-17.2704567,-6.30118605,7.56965704,4.47824156,0,0,0,0
1.525,-0.62695671,6.36333079,91.20183001,0.58525536,0.96935064,-0.70826533,-4.99184148,-1.78631979,-29.18455645,-6.54363735,10.07450406,2.45596812,0,-4.08211054,-1.57052086,-17.27019549,-6.30130848,7.56993717,4.47823353,0,0,0,0
1.53,-0.62837769,6.36260915,91.20181642,0.58529196,0.96935269,-0.70829228,-4.99256324,-1.78542577,-29.18457347,-6.54407067,10.07442848,2.45599696,0,-4.08271663,-1.57130045,-17.26989148,-6.30141908,7.5702556,4.47824848,0,0,0,0
1.535,-0.62977597,6.36188513,91.20169474,0.58532907,0.96935418,-0.70831917,-4.99330591,-1.78446893,-29.18460171,-6.54441413,10.07444805,2.4560177,0,-4.0833593,-1.5721554,-17.26955844,-6.30151468,7.57059829,4.4782774,0,0,0,0
1.54,-0.63112696,6.36116197,91.20146566,0.58536663,0.96935519,-0.7083459,-4.99407218,-1.78343609,-29.18463467,-6.54467877,10.07456613,2.45603288,0,-4.08405211,-1.57310615,-17.26921356,-6.30159345,7.57094644,4.47831005,0,0,0,0
1.545,-0.6324074,6.36044557,91.20113,0.58540467,0.96935564,-0.70837242,-4.99486965,-1.78230714,-29.1846639,-6.54487429,10.07478822,2.45604652,0,-4.08481655,-1.57418322,-17.26887573,-6.30166051,7.57127729,4.47833341,0,0,0,0
1.55,-0.63359153,6.35974177,91.20068662,0.58544334,0.96935532,-0.70839866,-4.99571009,-1.78105646,-29.1846791,-6.54501265,10.07511945,2.45606409,0,-4.08567417,-1.57541448,-17.26856915,-6.30172718,7.57156099,4.47833164,0,0,0,0
1.555,-0.61120062,6.39750118,91.19974437,0.58550354,0.96938761,-0.70845316,-5.05066827,-1.74547977,-29.17968917,-6.52025184,10.07276647,2.45674973,0,-4.13155262,-1.60402969,-17.25639644,-6.29971543,7.5957578,4.47506887,0,0,0,0
1.56,-0.61284688,6.39645712,91.19953228,0.58554165,0.96938543,-0.70847968,-5.05113015,-1.74473794,-29.17978711,-6.52050393,10.07292673,2.45664571,0,-4.13217055,-1.60480838,-17.25653606,-6.29966845,7.59555059,4.47497795,0,0,0,0
1.565,-0.61436542,6.39548044,91.19913898,0.58558035,0.96938329,-0.70850553,-5.05163243,-1.74386711,-29.17987421,-6.52072489,10.07318699,2.45654324,0,-4.13284905,-1.60573867,-17.25674505,-6.29964314,7.59522379,4.4748454,0,0,0,0
1.57,-0.61566722,6.39462322,91.1985357,0.58561809,0.96938249,-0.70853096,-5.05216288,-1.7428519,-29.17994981,-6.52088656,10.07357082,2.45643929,0,-4.13360127,-1.60681021,-17.25705485,-6.2996342,7.59474979,4.47466055,0,0,0,0
1.575,-0.60387936,6.40096979,91.19086997,0.58567531,0.96938895,-0.70856501,-5.06227867,-1.72574521,-29.17492643,-6.51637253,10.08555481,2.45616228,0,-4.14628173,-1.62185515,-17.27292055,-6.29235737,7.57867849,4.4677813,0,0,0,0
1.58,-0.60528394,6.40029884,91.19021991,0.58571139,0.96938555,-0.70858854,-5.06272225,-1.72504491,-29.17479828,-6.51661776,10.08542831,2.45618005,0,-4.14710608,-1.62258884,-17.27292059,-6.29257774,7.57854486,4.46779186,0,0,0,0
1.585,-0.59446513,6.4172289,91.17501608,0.58576894,0.96940224,-0.70861962,-5.08354715,-1.71010512,-29.15745288,-6.51072901,10.08341768,2.45949654,0,-4.17279449,-1.63518007,-17.29093881,-6.2848072,7.57068046,4.46482165,0,0,0,0
1.59,-0.5961642,6.41613281,91.17455215,0.58580878,0.96940078,-0.70864642,-5.08410162,-1.70961714,-29.15752834,-6.5109244,10.08338758,2.45935889,0,-4.17361551,-1.63595183,-17.29092719,-6.28501068,7.5707094,4.46488882,0,0,0,0
1.595,-0.59360521,6.44112441,91.16426659,0.58586012,0.96942266,-0.70869017,-5.1188793,-1.70070887,-29.14085228,-6.49673712,10.08225459,2.44964043,0,-4.20921016,-1.64062532,-17.31174109,-6.27632109,7.56929442,4.48056677,0,0,0,0
1.6,-0.5952435,6.44009901,91.16390885,0.58590073,0.96941963,-0.70871319,-5.1191589,-1.70007791,-29.1409761,-6.4969518,10.08228834,2.44948593,0,-4.2098253,-1.64139085,-17.31180282,-6.27646382,7.56933072,4.48064223,0,0,0,0
1.605,-0.59680355,6.43909316,91.16317528,0.5859432,0.96941703,-0.70873517,-5.11942261,-1.6992679,-29.14116149,-6.49702321,10.08246123,2.44929333,0,-4.21050603,-1.64224402,-17.31196187,-6.27655385,7.56931864,4.48075721,0,0,0,0
1.61,-0.59238965,6.43802523,91.15641579,0.58599967,0.96941442,-0.70876588,-5.12167507,-1.69035873,-29.13889204,-6.49136687,10.08815595,2.44707824,0,-4.21537256,-1.64912127,-17.32419696,-6.27023531,7.5689717,4.48488814,0,0,0,0
1.615,-0.59398184,6.43725031,91.15567205,0.58604329,0.96941359,-0.70878571,-5.12200208,-1.68962309,-29.13879549,-6.49162554,10.08808093,2.44705632,0,-4.21596992,-1.64996791,-17.32424264,-6.27051619,7.56888436,4.48516466,0,0,0,0
1.62,-0.59362496,6.43682544,91.14800429,0.58609729,0.96941304,-0.70880647,-5.12278532,-1.68669913,-29.13748432,-6.48962618,10.0890317,2.4468716,0,-4.21799307,-1.65261967,-17.32645253,-6.27048705,7.56805541,4.48855075,0,0,0,0
1.625,-0.59554931,6.43580424,91.14792625,0.58614671,0.96941106,-0.70882908,-5.12297725,-1.68572422,-29.13720624,-6.48990789,10.08900221,2.44699348,0,-4.2187683,-1.65374746,-17.32685611,-6.2704718,7.56808512,4.48865808,0,0,0,0
1.63,-0.59732325,6.43477324,91.14746971,0.58619598,0.96941009,-0.70885126,-5.1231942,-1.68463201,-29.13695432,-6.49005864,10.08909172,2.44710976,0,-4.21943591,-1.65489495,-17.32731269,-6.27028591,7.56810992,4.48883048,0,0,0,0
1.635,-0.58596021,6.42987299,91.13517438,0.58626171,0.9694036,-0.70888933,-5.12273366,-1.66782426,-29.1210812,-6.48121175,10.09451742,2.45295993,0,-4.22505326,-1.66821465,-17.35181426,-6.25523069,7.56821881,4.5008548,0,0,0,0
1.64,-0.58127177,6.43705799,91.11246928,0.58633605,0.96941062,-0.70891162,-5.13318751,-1.65797878,-29.08057207,-6.47035036,10.08300729,2.4270606,0,-4.22815401,-1.68361819,-17.46136215,-6.27377243,7.58320949,4.62086805,0,0,0,0
1.645,-0.5836007,6.43589971,91.11237843,0.58638949,0.96940901,-0.70893791,-5.13342964,-1.65700135,-29.08058208,-6.47095411,10.08304129,2.42698875,0,-4.22873069,-1.68466179,-17.4609566,-6.27413091,7.58316548,4.62123045,0,0,0,0
1.65,-0.58554724,6.43482329,91.11208244,0.5864381,0.96940509,-0.70896219,-5.13362704,-1.65611984,-29.08057684,-6.47139115,10.08320097,2.42692543,0,-4.22908135,-1.685745,-17.46058722,-6.27422002,7.58315338,4.62162827,0,0,0,0
1.655,-0.58746187,6.43351929,91.11164265,0.58648831,0.96940314,-0.70898718,-5.13379019,-1.65513721,-29.08053885,-6.47175569,10.08344386,2.42689952,0,-4.22946714,-1.68690974,-17.46029518,-6.27416279,7.58318119,4.6219974,0,0,0,0
1.66,-0.58917223,6.43215201,91.11106527,0.5865358,0.96939835,-0.70901298,-5.13387546,-1.65407699,-29.08045153,-6.47202234,10.08380678,2.42690953,0,-4.22971958,-1.68808362,-17.46005301,-6.27388438,7.58325376,4.6223834,0,0,0,0
1.665,-0.59078629,6.4305557,91.11040724,0.58658357,0.96939408,-0.709039,-5.13384678,-1.65293744,-29.08030003,-6.47219639,10.08429292,2.42696433,0,-4.22997286,-1.68933191,-17.45987082,-6.27343919,7.58337639,4.62277035,0,0,0,0
1.67,-0.5920937,6.42882946,91.109673,0.58662749,0.96938871,-0.70906406,-5.13362291,-1.65174079,-29.08005695,-6.47221959,10.08496725,2.42707265,0,-4.23006794,-1.69056805,-17.45975076,-6.27272234,7.58356165,4.62319108,0,0,0,0
1.675,-0.57546435,6.37347846,91.09709567,0.58669074,0.96932795,-0.70905883,-5.06563613,-1.63453453,-29.05645426,-6.48485973,10.09858675,2.42075088,0,-4.16685984,-1.71233175,-17.48807628,-6.28007202,7.59215494,4.65498813,0,0,0,0
1.68,-0.57719565,6.37230779,91.09699912,0.5867303,0.96932242,-0.70908447,-5.06594854,-1.63419798,-29.05634856,-6.48509718,10.09862531,2.42075992,0,-4.16728432,-1.71333797,-17.48800231,-6.28006689,7.5921919,4.65517095,0,0,0,0
1.685,-0.57888039,6.37102509,91.09692052,0.58676896,0.96931634,-0.70910868,-5.06620418,-1.63366432,-29.05621782,-6.48531831,10.09877297,2.42079972,0,-4.16755446,-1.71410017,-17.4879886,-6.27993481,7.59224045,4.65533735,0,0,0,0
1.69,-0.58053129,6.36960798,91.09691673,0.58680591,0.96930982,-0.70913246,-5.06633741,-1.63317639,-29.05605645,-6.48544045,10.09903789,2.42086106,0,-4.16773645,-1.71482343,-17.488033,-6.27969969,7.59228253,4.65547882,0,0,0,0
1.695,-0.58218226,6.36804304,91.09700668,0.58684155,0.9693031,-0.70915607,-5.06635322,-1.63272926,-29.05586891,-6.48546583,10.09942791,2.42094179,0,-4.16781452,-1.71549092,-17.48813801,-6.27937809,7.59229349,4.65559412,0,0,0,0
1.7,-0.58386337,6.36631517,91.09720069,0.58687627,0.96929639,-0.70917975,-5.06625658,-1.63232758,-29.05566281,-6.48538867,10.09995511,2.42103859,0,-4.16777663,-1.7161065,-17.48830879,-6.27898918,7.59224009,4.65567869,0,0,0,0
1.705,-0.58556456,6.36433868,91.09754912,0.58691,0.96929097,-0.70920298,-5.06598468,-1.63199257,-29.05542689,-6.48513142,10.10071439,2.42115702,0,-4.16752994,-1.71662043,-17.48858208,-6.27849579,7.59206291,4.65573654,0,0,0,0
1.71,-0.59947751,6.30740536,91.10085805,0.58693088,0.96923226,-0.70919487,-4.9995124,-1.64863383,-29.04066349,-6.49731338,10.12915178,2.42251904,0,-4.10384018,-1.70325657,-17.49402647,-6.27862318,7.55833707,4.66716151,0,0,0,0
1.715,-0.60095662,6.30612714,91.10071569,0.58696458,0.96922686,-0.70921884,-4.99966825,-1.64823638,-29.04094736,-6.49761101,10.12915202,2.42236217,0,-4.10417201,-1.70413705,-17.49439083,-6.2787439,7.55861455,4.66687343,0,0,0,0
1.72,-0.60246304,6.30474111,91.10072558,0.58699841,0.96922209,-0.70924283,-4.99979444,-1.64783502,-29.04122507,-6.49779811,10.12927221,2.42223074,0,-4.10437755,-1.70499779,-17.49486228,-6.27887076,7.55873848,4.6665167,0,0,0,0
1.725,-0.60403076,6.30323287,91.10086079,0.58703275,0.96921755,-0.70926763,-4.99991038,-1.64740296,-29.04150445,-6.49787509,10.12950928,2.42212597,0,-4.10445051,-1.70586456,-17.49544133,-6.27902225,7.55869638,4.66608732,0,0,0,0
1.73,-0.60565175,6.30157576,91.10110391,0.58706781,0.96921348,-0.70929333,-5.00002091,-1.64692581,-29.04179715,-6.49782221,10.12987074,2.4220488,0,-4.10437886,-1.70674015,-17.49613865,-6.27922495,7.5584785,4.66557571,0,0,0,0
1.735,-0.60658602,6.26176102,91.10571972,0.58709967,0.96917824,-0.70928833,-4.95624717,-1.6465524,-29.04730153,-6.49961108,10.13518735,2.42822522,0,-4.04857958,-1.71119935,-17.51202686,-6.30076641,7.53326338,4.65166662,0,0,0,0
1.74,-0.60822231,6.26026346,91.10537461,0.58713643,0.9691759,-0.70931755,-4.95654975,-1.64612648,-29.04751796,-6.49987827,10.13530138,2.42816246,0,-4.04903526,-1.71210921,-17.51203549,-6.30080125,7.53348621,4.65159824,0,0,0,0
1.745,-0.60971616,6.25879658,91.105135,0.58717113,0.96917328,-0.709346,-4.95683442,-1.64565404,-29.04771942,-6.49999847,10.13550536,2.42814675,0,-4.04933088,-1.71293973,-17.51212993,-6.3009043,7.53360393,4.65147018,0,0,0,0
1.75,-0.61116464,6.25725145,91.1049529,0.58720534,0.96917208,-0.70937571,-4.95716994,-1.64511559,-29.04791026,-6.49999109,10.13580798,2.42818345,0,-4.04946191,-1.71379328,-17.51230424,-6.3011033,7.53361949,4.65127503,0,0,0,0
1.755,-0.6125907,6.25558768,91.10481095,0.58724047,0.96916975,-0.7094067,-4.95756681,-1.64450204,-29.04807734,-6.49988227,10.13618429,2.42827628,0,-4.04951742,-1.71469709,-17.51253515,-6.30145863,7.53353219,4.65102322,0,0,0,0
1.76,-0.6139832,6.25386721,91.10466592,0.58727524,0.96916812,-0.70943939,-4.95802255,-1.64379847,-29.04822545,-6.4996616,10.13664324,2.42842801,0,-4.04943304,-1.71565214,-17.51280914,-6.30196617,7.53335942,4.65071965,0,0,0,0
1.765,-0.61211549,6.24175048,91.10504894,0.58731815,0.9691532,-0.70947347,-4.95575933,-1.63450031,-29.05117316,-6.48066353,10.15079039,2.4337946,0,-4.03202997,-1.72220483,-17.52063475,-6.31389538,7.528128,4.64342028,0,0,0,0
1.77,-0.61343494,6.24025443,91.10523433,0.58735183,0.96915239,-0.70950781,-4.95613832,-1.63391479,-29.05101749,-6.48142378,10.15047068,2.43406721,0,-4.03222557,-1.72317107,-17.52059106,-6.3144263,7.52815227,4.6433513,0,0,0,0
1.775,-0.61463742,6.23870423,91.10529555,0.5873851,0.96915034,-0.70954199,-4.95659335,-1.63330436,-29.05087693,-6.4820536,10.15025072,2.43436423,0,-4.0323322,-1.72413116,-17.52053041,-6.31508756,7.52817791,4.64327159,0,0,0,0
1.78,-0.61579907,6.23713413,91.10524767,0.58741728,0.96914931,-0.70957703,-4.95708632,-1.6326172,-29.05074419,-6.48257436,10.15012075,2.434691,0,-4.03234521,-1.72508125,-17.5204428,-6.31583872,7.5282473,4.64319125,0,0,0,0
1.785,-0.61689827,6.23550688,91.10513277,0.58744925,0.96914782,-0.70961189,-4.95758185,-1.63189037,-29.05061377,-6.48298434,10.15007347,2.43504637,0,-4.03233738,-1.72600774,-17.52031827,-6.31666856,7.52840003,4.64312321,0,0,0,0
1.79,-0.61796522,6.23387219,91.10496164,0.58747991,0.969147,-0.7096468,-4.95807029,-1.63113086,-29.05048542,-6.48330224,10.1501022,2.43542388,0,-4.03227997,-1.72689292,-17.52014242,-6.31751813,7.52867745,4.64308442,0,0,0,0
1.795,-0.6190075,6.23221291,91.10475776,0.58750981,0.96914641,-0.70968132,-4.95853956,-1.63038393,-29.05035679,-6.48353835,10.15019885,2.43581906,0,-4.03220594,-1.72772957,-17.5198944,-6.31839417,7.52911657,4.64309189,0,0,0,0
1.8,-0.62005575,6.23054987,91.10452147,0.58753865,0.96914637,-0.70971565,-4.95899848,-1.62968492,-29.05022836,-6.48371627,10.1503544,2.43622245,0,-4.03210763,-1.7285042,-17.51954841,-6.31931318,7.52974352,4.64316224,0,0,0,0
1.805,-0.60435686,6.20020606,91.11367274,0.58757435,0.96910587,-0.70972317,-4.92690374,-1.61031801,-29.07103621,-6.48499413,10.15564319,2.4578717,0,-3.9753921,-1.75588427,-17.50883241,-6.36939926,7.59065528,4.65759769,0,0,0,0
1.81,-0.60565249,6.19870672,91.11351622,0.58760089,0.96910837,-0.70975824,-4.92751978,-1.610068,-29.07091954,-6.48543013,10.15558105,2.45812233,0,-3.97568692,-1.75627823,-17.50864377,-6.36983816,7.59055644,4.65788827,0,0,0,0
1.815,-0.60705157,6.19722673,91.11324446,0.58762702,0.96911122,-0.70979371,-4.92809735,-1.60996612,-29.07080503,-6.48579299,10.15559109,2.45837877,0,-3.97595579,-1.75661499,-17.50824126,-6.37058831,7.59068949,4.65829195,0,0,0,0
1.82,-0.6206897,6.19244616,91.1201837,0.58764024,0.9691065,-0.70981966,-4.92688112,-1.6226207,-29.06715821,-6.48433531,10.16171822,2.46847298,0,-3.96077522,-1.74712286,-17.49519095,-6.39500972,7.60898143,4.67596369,0,0,0,0
1.825,-0.62193272,6.19098027,91.11957783,0.58766739,0.96910974,-0.70985511,-4.92727574,-1.62252504,-29.06767496,-6.48478441,10.16196424,2.4683337,0,-3.9610498,-1.74791123,-17.49506951,-6.39571438,7.60941597,4.67627502,0,0,0,0
1.83,-0.63131446,6.18333312,91.13011818,0.5876842,0.96909656,-0.70987543,-4.91798708,-1.6322943,-29.08465129,-6.49383252,10.17950141,2.46976504,0,-3.93492148,-1.74662525,-17.48987654,-6.43542174,7.6500623,4.69973579,0,0,0,0
1.835,-0.63246541,6.18176439,91.12972379,0.58771214,0.9691016,-0.70991153,-4.91837638,-1.6317846,-29.08481181,-6.4943503,10.17950142,2.46988402,0,-3.93522163,-1.74728437,-17.48978294,-6.43594589,7.6501049,4.7001453,0,0,0,0
1.84,-0.63381728,6.18023049,91.12940067,0.58774215,0.96910552,-0.70994624,-4.91865599,-1.63143311,-29.08497891,-6.49478129,10.17962049,2.47001561,0,-3.93538072,-1.7479822,-17.48947526,-6.43684674,7.65034975,4.7006974,0,0,0,0
1.845,-0.63534783,6.1786605,91.12932188,0.58777346,0.96910952,-0.70997979,-4.91884611,-1.63112651,-29.08515191,-6.49516286,10.17988497,2.4701598,0,-3.93536002,-1.74862408,-17.48900284,-6.43799617,7.65079928,4.70138276,0,0,0,0
1.85,-0.63696576,6.17699913,91.12959968,0.58780724,0.96911228,-0.71001268,-4.91902428,-1.63070115,-29.08529405,-6.49555095,10.18020666,2.4702839,0,-3.93537977,-1.7491601,-17.48856431,-6.43898909,7.6512951,4.70200136,0,0,0,0
1.855,-0.63781228,6.13513935,91.1618237,0.58782563,0.96906368,-0.71000891,-4.86738959,-1.63142703,-29.12970732,-6.51851728,10.19886748,2.47421295,0,-3.86118647,-1.76373593,-17.48326861,-6.49207367,7.69371331,4.77526706,0,0,0,0
1.86,-0.63928624,6.13335319,91.16211434,0.58786075,0.96906484,-0.71004268,-4.86749542,-1.63066012,-29.12948796,-6.51841337,10.19895648,2.47461591,0,-3.86193963,-1.7642775,-17.48374414,-6.4918808,7.69366375,4.7754312,0,0,0,0
1.865,-0.63864088,6.11729922,91.16413542,0.58789717,0.96905013,-0.71009018,-4.85976223,-1.62432932,-29.12916125,-6.50394534,10.20545863,2.48347902,0,-3.85901481,-1.76446043,-17.49400777,-6.46756611,7.68754069,4.78842537,0,0,0,0
1.87,-0.63666529,6.10812392,91.16821173,0.58792976,0.96904416,-0.71012968,-4.85163461,-1.62004518,-29.13460914,-6.50679943,10.20557316,2.4879912,0,-3.85954444,-1.76691435,-17.50036466,-6.44991322,7.67666525,4.80442256,0,0,0,0
1.875,-0.63685665,6.10078934,91.17279552,0.58796398,0.969037,-0.71017189,-4.84775644,-1.6170879,-29.13932669,-6.50527242,10.20809739,2.49093503,0,-3.86053619,-1.76775014,-17.50545587,-6.43620018,7.67227197,4.81300709,0,0,0,0
1.88,-0.6369493,6.09641854,91.1799772,0.58798895,0.96902948,-0.71021459,-4.84649925,-1.61438229,-29.13965265,-6.50577975,10.20874814,2.49240295,0,-3.86216863,-1.76868456,-17.50847731,-6.42721681,7.67123768,4.81484853,0,0,0,0
1.885,-0.63400489,6.0864162,91.18305944,0.58802369,0.96901896,-0.71027031,-4.84154452,-1.60733065,-29.14526781,-6.50156052,10.21279251,2.49283085,0,-3.86679251,-1.77062278,-17.51081754,-6.40224052,7.66634726,4.82150884,0,0,0,0
1.89,-0.63008145,6.07901088,91.18392968,0.58805537,0.96901042,-0.71032175,-4.83776889,-1.60060387,-29.15006759,-6.49894961,10.21332678,2.49641176,0,-3.87343146,-1.77358743,-17.50940623,-6.37855863,7.65305481,4.83104438,0,0,0,0
1.895,-0.62842399,6.07305754,91.18705128,0.58808715,0.96900152,-0.7103777,-4.8369751,-1.59529397,-29.15408326,-6.49526481,10.2144708,2.49926109,0,-3.87833002,-1.77508962,-17.5115323,-6.36134066,7.64743753,4.8342076,0,0,0,0
1.9,-0.62589974,6.06757422,91.18922713,0.58811995,0.96899285,-0.71043644,-4.83667679,-1.58932591,-29.15710951,-6.49160633,10.21527239,2.50280114,0,-3.88379727,-1.77767549,-17.51185897,-6.34489391,7.64229505,4.83714592,0,0,0,0
1.905,-0.62687388,6.06524636,91.1896323,0.58815133,0.96898696,-0.71048838,-4.83746458,-1.58855861,-29.15708765,-6.49215712,10.21519408,2.50297368,0,-3.8849788,-1.77815321,-17.51199884,-6.34477067,7.64219367,4.83710188,0,0,0,0
1.91,-0.62133067,6.05612937,91.19169862,0.58818837,0.96897437,-0.71055744,-4.83615971,-1.57769891,-29.16126349,-6.48307995,10.21802502,2.50660046,0,-3.89100463,-1.78299402,-17.51281068,-6.31982053,7.63903641,4.83967057,0,0,0,0
1.915,-0.62226341,6.05372054,91.19192232,0.58821782,0.96896791,-0.71061522,-4.83711079,-1.57701307,-29.16121929,-6.48365908,10.21787396,2.50678328,0,-3.89215203,-1.78359351,-17.51284056,-6.31989563,7.63890332,4.83962207,0,0,0,0
1.92,-0.61615391,6.04535227,91.19280403,0.58825814,0.96895863,-0.71068928,-4.83747744,-1.56545835,-29.16427235,-6.47329665,10.21839818,2.51173072,0,-3.89701292,-1.78989574,-17.51261347,-6.30044186,7.63660827,4.84061544,0,0,0,0
1.925,-0.6172302,6.04308714,91.19278616,0.58829009,0.96895216,-0.71074632,-4.83847796,-1.56476255,-29.16428321,-6.47382773,10.21821594,2.51188646,0,-3.89798826,-1.7905672,-17.5125988,-6.3006257,7.63653165,4.84053402,0,0,0,0
1.93,-0.61833744,6.04035565,91.19272365,0.58832607,0.96894752,-0.71080755,-4.83950697,-1.56397616,-29.16436113,-6.47411267,10.21813097,2.51204268,0,-3.89912922,-1.79143122,-17.51268016,-6.30056059,7.63656256,4.84041738,0,0,0,0
1.935,-0.61383207,6.03032036,91.19157098,0.58836724,0.96893437,-0.71088463,-4.83968686,-1.55344281,-29.16763813,-6.45979622,10.21984258,2.51544185,0,-3.90102548,-1.79612054,-17.51620358,-6.28405618,7.63986953,4.83863129,0,0,0,0
1.94,-0.6150316,6.02772458,91.19118291,0.5884035,0.96893001,-0.71094722,-4.84078831,-1.55278863,-29.16763535,-6.46026884,10.21954539,2.51562186,0,-3.90217003,-1.79709023,-17.51605627,-6.28448928,7.63976428,4.83857789,0,0,0,0
1.945,-0.61627086,6.02488817,91.19064181,0.58844108,0.96892628,-0.71101186,-4.84190873,-1.55204489,-29.16770883,-6.46051501,10.21932363,2.51578352,0,-3.90332668,-1.79809722,-17.51599875,-6.28475086,7.63977025,4.83848854,0,0,0,0
1.95,-0.60869182,6.01463878,91.18575199,0.58849063,0.96891516,-0.71108902,-4.84372609,-1.53714147,-29.16778882,-6.44041328,10.21241114,2.52458816,0,-3.90408193,-1.80657333,-17.51923405,-6.27137921,7.64403791,4.83456359,0,0,0,0
1.955,-0.6085267,6.01202035,91.18116745,0.58852901,0.96891089,-0.71114939,-4.84516853,-1.53519085,-29.16897568,-6.43837739,10.21060459,2.52522952,0,-3.90508799,-1.80847789,-17.51819877,-6.27245854,7.64411411,4.83426555,0,0,0,0
1.96,-0.61006369,6.0088784,91.18083951,0.58856979,0.96890565,-0.71122036,-4.84637981,-1.5345324,-29.16899025,-6.43888318,10.21035229,2.525338,0,-3.90641993,-1.80953737,-17.51825537,-6.2729443,7.644217,4.83409274,0,0,0,0
1.965,-0.60433185,5.99904263,91.17506835,0.58861722,0.96889568,-0.71129723,-4.84723658,-1.52279062,-29.16721631,-6.42228265,10.20333517,2.53248847,0,-3.90563268,-1.81614099,-17.52381825,-6.26366916,7.65248211,4.82855797,0,0,0,0
1.97,-0.60413816,5.99506993,91.16926438,0.58866525,0.96889043,-0.71136874,-4.84798119,-1.52011817,-29.1676486,-6.41966731,10.20196187,2.53321812,0,-3.90680265,-1.81853866,-17.52325902,-6.26436808,7.65330256,4.82813516,0,0,0,0
1.975,-0.60563432,5.99202408,91.1686032,0.58870714,0.9688838,-0.71143856,-4.84910797,-1.51934965,-29.16763203,-6.42012043,10.20182234,2.53330646,0,-3.9079775,-1.81951891,-17.52330413,-6.26475958,7.65343524,4.82800502,0,0,0,0
1.98,-0.6005667,5.98035708,91.15826046,0.58876542,0.96886968,-0.711522,-4.84681237,-1.50874264,-29.16333509,-6.40587004,10.20147659,2.53906772,0,-3.90734168,-1.82518558,-17.52969836,-6.25427872,7.66098642,4.824043,0,0,0,0
1.985,-0.59365928,5.97150157,91.14781178,0.58882145,0.96885699,-0.7115952,-4.84422894,-1.49771801,-29.15429199,-6.39776893,10.19785937,2.54660739,0,-3.90537037,-1.83390248,-17.53508131,-6.25067178,7.66435726,4.82014758,0,0,0,0
1.99,-0.59345794,5.96625746,91.14126016,0.58887289,0.96884881,-0.71167007,-4.84413539,-1.49477809,-29.15410016,-6.39506396,10.1987924,2.54703263,0,-3.90564692,-1.83613021,-17.53599398,-6.25036806,7.66505767,4.81963157,0,0,0,0
1.995,-0.59514971,5.96281527,91.14071639,0.58891945,0.96884183,-0.71174538,-4.84526941,-1.4937326,-29.15388434,-6.39564314,10.1988422,2.54722254,0,-3.90690396,-1.83721416,-17.53619455,-6.25075475,7.66513249,4.81945773,0,0,0,0
2,-0.58028941,5.94473983,91.1224441,0.5889917,0.9688203,-0.71182262,-4.8346663,-1.47287874,-29.13394865,-6.38183476,10.20241106,2.56308816,0,-3.89850949,-1.85349137,-17.55029798,-6.24193931,7.66873354,4.81273799,0,0,0,0
2.005,-0.58222504,5.9412493,91.12171204,0.5890401,0.96881269,-0.71189949,-4.83581718,-1.47190812,-29.1340125,-6.38247455,10.20251308,2.56308721,0,-3.89977384,-1.85453669,-17.55043025,-6.24246789,7.6687723,4.81262531,0,0,0,0
2.01,-0.57533953,5.92506556,91.11149749,0.58910459,0.96879096,-0.71198398,-4.8289197,-1.4584777,-29.12800206,-6.36801976,10.21259141,2.56976664,0,-3.89410017,-1.86275429,-17.56147318,-6.23196093,7.67240707,4.80865274,0,0,0,0
2.015,-0.56563464,5.91124064,91.09971375,0.58916948,0.96877337,-0.71205555,-4.81923894,-1.44478102,-29.1152347,-6.36382394,10.21441379,2.58075124,0,-3.88490743,-1.87571875,-17.57007448,-6.23202737,7.67107302,4.80670734,0,0,0,0
2.02,-0.5676764,5.90797404,91.09895241,0.58921928,0.9687652,-0.71212958,-4.82034141,-1.44376323,-29.11529801,-6.36460734,10.21440858,2.58077249,0,-3.88598227,-1.87682525,-17.5701533,-6.23263795,7.67104121,4.80664963,0,0,0,0
2.025,-0.55298629,5.88528932,91.0844943,0.58929166,0.96873959,-0.71219639,-4.80134613,-1.42420318,-29.10322981,-6.35725142,10.21606183,2.59407366,0,-3.86626527,-1.89562723,-17.58561158,-6.23454313,7.67004372,4.80598572,0,0,0,0
2.03,-0.55486752,5.8820345,91.08395243,0.58933919,0.96873163,-0.71226871,-4.80240825,-1.42321241,-29.10340288,-6.35785087,10.21621119,2.59403572,0,-3.86725501,-1.89658828,-17.58579134,-6.23498884,7.67007726,4.80593913,0,0,0,0
2.035,-0.54743469,5.86518667,91.07944706,0.58939805,0.9687085,-0.71235102,-4.79471924,-1.40884048,-29.10180385,-6.34468711,10.2260246,2.59895334,0,-3.85771785,-1.90692472,-17.59653492,-6.22821532,7.67013169,4.80488826,0,0,0,0
2.04,-0.53597652,5.84962787,91.071985,0.58946189,0.96868922,-0.71241572,-4.78254446,-1.39244995,-29.09519482,-6.34084713,10.2253488,2.60812753,0,-3.84300066,-1.92356814,-17.60440593,-6.23303982,7.66567825,4.80768684,0,0,0,0
2.045,-0.53751001,5.84636106,91.07151908,0.58950304,0.96868052,-0.71249077,-4.78356907,-1.39177261,-29.09532561,-6.34153074,10.22530883,2.6081037,0,-3.84414324,-1.92457575,-17.604506,-6.23374001,7.66565017,4.80767976,0,0,0,0
2.05,-0.52800889,5.82999346,91.06782981,0.58955771,0.96865775,-0.71257036,-4.77537556,-1.37585616,-29.09504427,-6.33009044,10.23137066,2.61306113,0,-3.83313099,-1.93757476,-17.61514683,-6.23016749,7.66420337,4.80752634,0,0,0,0
2.055,-0.52943262,5.82679673,91.06693567,0.58959923,0.9686481,-0.71264547,-4.77630072,-1.37490346,-29.09506925,-6.33079339,10.2312406,2.61317252,0,-3.83413852,-1.93882885,-17.61505362,-6.23111901,7.66394899,4.80765874,0,0,0,0
2.06,-0.51453536,5.81033269,91.06061363,0.58965938,0.96862695,-0.71272268,-4.76740657,-1.35322933,-29.09098949,-6.31922922,10.23500486,2.62218285,0,-3.82163164,-1.95819374,-17.62419949,-6.23067441,7.65888945,4.80878878,0,0,0,0
2.065,-0.51596362,5.80709958,91.06000071,0.58969896,0.96861764,-0.71280032,-4.76851018,-1.35250507,-29.09107138,-6.32001889,10.23479361,2.62221624,0,-3.82275188,-1.95923802,-17.62418764,-6.23153548,7.6588243,4.80884461,0,0,0,0
2.07,-0.50349598,5.79156506,91.05411079,0.58975658,0.96859601,-0.71288149,-4.76123443,-1.33344272,-29.09004971,-6.30764363,10.23565989,2.62940652,0,-3.81175243,-1.97574553,-17.63453847,-6.23085314,7.66002271,4.80994031,0,0,0,0
2.075,-0.50490581,5.78828928,91.05349794,0.58979536,0.96858694,-0.71296113,-4.76241146,-1.33273891,-29.09009645,-6.30843882,10.23546513,2.62945688,0,-3.8129692,-1.97678991,-17.63447371,-6.2318045,7.65994109,4.81004076,0,0,0,0
2.08,-0.4938984,5.77503392,91.04829103,0.58985261,0.96856778,-0.71304356,-4.75813818,-1.31495386,-29.08841792,-6.29546212,10.23666432,2.63685144,0,-3.80386895,-1.992056,-17.64334315,-6.23267774,7.66287936,4.81287282,0,0,0,0
2.085,-0.49530001,5.77173205,91.04768521,0.58989065,0.96855969,-0.71312362,-4.75934698,-1.31427994,-29.08851089,-6.29619888,10.23648299,2.63687763,0,-3.80513238,-1.99308415,-17.64331123,-6.23360456,7.66287038,4.81299441,0,0,0,0
2.09,-0.48755534,5.75988172,91.04395706,0.58994215,0.96854289,-0.7132095,-4.75736109,-1.30006344,-29.08853759,-6.28263404,10.23796717,2.64257345,0,-3.79834782,-2.00438113,-17.65114504,-6.23334483,7.66904412,4.81669439,0,0,0,0
2.095,-0.48906447,5.75663852,91.04342312,0.58998046,0.96853569,-0.7132891,-4.75859534,-1.2993524,-29.08860042,-6.28339122,10.23779751,2.64261441,0,-3.79962928,-2.00536324,-17.65107447,-6.23425689,7.66904265,4.81682757,0,0,0,0
2.1,-0.49043437,5.75316435,91.04280124,0.5900194,0.96853067,-0.71336939,-4.75985352,-1.29857171,-29.08871006,-6.28381974,10.23780987,2.64267472,0,-3.80089981,-2.00632314,-17.6510588,-6.23502449,7.6691518,4.81692795,0,0,0,0
2.105,-0.48470162,5.73952702,91.04092492,0.59006619,0.96851175,-0.71346006,-4.75926124,-1.28499513,-29.08856538,-6.26423393,10.24190683,2.64943517,0,-3.79375277,-2.01475641,-17.65625557,-6.23179687,7.67967121,4.8211643,0,0,0,0
2.11,-0.48600289,5.73620631,91.04036547,0.59010209,0.96850602,-0.71353994,-4.76055932,-1.28435041,-29.08866109,-6.26493392,10.24173293,2.64948243,0,-3.79502814,-2.015614,-17.65611299,-6.23274717,7.67973938,4.82132499,0,0,0,0
2.115,-0.48727778,5.73274423,91.03971222,0.5901362,0.96850279,-0.71362031,-4.76185372,-1.28356767,-29.0888084,-6.26525331,10.24172063,2.64957438,0,-3.79618268,-2.0163998,-17.6559952,-6.23349389,7.680021,4.82149182,0,0,0,0
2.12,-0.476398,5.71718014,91.03980234,0.59018273,0.96848336,-0.71370758,-4.76132643,-1.26349084,-29.09175531,-6.24058972,10.23490476,2.66455033,0,-3.78064358,-2.03276419,-17.65457544,-6.2434468,7.70595294,4.83865263,0,0,0,0
2.125,-0.47782409,5.71370863,91.03959104,0.59021697,0.96847901,-0.71378903,-4.76269023,-1.26289473,-29.09204831,-6.24129383,10.23494611,2.66446114,0,-3.78196327,-2.03333394,-17.65477342,-6.24400486,7.70613996,4.83867362,0,0,0,0
2.13,-0.47920657,5.71002529,91.03925301,0.59024961,0.96847521,-0.71387203,-4.76410943,-1.26229124,-29.09238479,-6.24163314,10.23514196,2.66441221,0,-3.78324873,-2.03381629,-17.6549534,-6.24437413,7.7065901,4.83870557,0,0,0,0
2.135,-0.48158413,5.69921324,91.03586625,0.59028437,0.96846007,-0.71396483,-4.7650007,-1.25947563,-29.09824262,-6.22571311,10.24258022,2.66502811,0,-3.78253367,-2.03099417,-17.65835467,-6.23530147,7.71985536,4.84022417,0,0,0,0
2.14,-0.48305099,5.69552193,91.03594129,0.59031908,0.96845612,-0.7140515,-4.76670865,-1.25885079,-29.09810655,-6.22650565,10.24250023,2.66529249,0,-3.78393034,-2.03165941,-17.65830243,-6.23594947,7.72028896,4.84030518,0,0,0,0
2.145,-0.4851153,5.68702835,91.03691059,0.59035396,0.96844252,-0.71414905,-4.77118658,-1.25510082,-29.09723967,-6.21131135,10.24792053,2.67248103,0,-3.78467044,-2.03028845,-17.65725782,-6.22890782,7.73913175,4.84403357,0,0,0,0
2.15,-0.48657161,5.6837852,91.0364413,0.59039079,0.96844008,-0.71423101,-4.77278809,-1.25436876,-29.09728394,-6.21208326,10.247861,2.67266999,0,-3.78615491,-2.03097237,-17.65702714,-6.22976221,7.73947764,4.84417072,0,0,0,0
2.155,-0.4881385,5.68044842,91.0358304,0.590431,0.96843744,-0.71431229,-4.77445056,-1.25354654,-29.09736664,-6.2125322,10.24798962,2.67289442,0,-3.78765539,-2.03164368,-17.65680056,-6.23037192,7.74012313,4.84430702,0,0,0,0
2.16,-0.48277611,5.69445549,91.03432471,0.59048725,0.96844077,-0.71441487,-4.80676518,-1.23928096,-29.10144144,-6.18996807,10.25594757,2.69906852,0,-3.81028363,-2.04122514,-17.64899018,-6.23199951,7.7855902,4.85832203,0,0,0,0
2.165,-0.48440068,5.69122172,91.03403776,0.59052868,0.96843903,-0.71449273,-4.80828396,-1.23839431,-29.10179599,-6.19064096,10.25604048,2.69907516,0,-3.81175863,-2.04167877,-17.64918999,-6.23240894,7.78564386,4.85831741,0,0,0,0
2.17,-0.4863632,5.68817315,91.03367487,0.59057629,0.96843798,-0.71456605,-4.80971449,-1.23743444,-29.10215693,-6.19098035,10.25634027,2.69912012,0,-3.81323769,-2.04238212,-17.64937725,-6.23257606,7.7859197,4.8583129,0,0,0,0
2.175,-0.48821079,5.68356609,91.03114337,0.59062901,0.96843138,-0.71465333,-4.8166719,-1.23282683,-29.10853171,-6.17623799,10.2677502,2.70101682,0,-3.81967178,-2.04159116,-17.6534771,-6.22178376,7.79493114,4.85955825,0,0,0,0
2.18,-0.49027032,5.681169,91.03132926,0.59067881,0.96843168,-0.71471985,-4.81815405,-1.23176034,-29.10838802,-6.1770892,10.26778028,2.70134906,0,-3.82115648,-2.042426,-17.65343713,-6.22226124,7.79507538,4.85962476,0,0,0,0
2.185,-0.49231418,5.67886279,91.03152705,0.59072876,0.96843203,-0.71478414,-4.81961864,-1.23072689,-29.10827108,-6.17768286,10.2680364,2.70168106,0,-3.8226977,-2.04338103,-17.6534089,-6.22262587,7.79531773,4.85967939,0,0,0,0
2.19,-0.49433495,5.67666155,91.03177541,0.5907789,0.96843212,-0.71484638,-4.82111273,-1.22962829,-29.10817087,-6.17810225,10.26850463,2.70201835,0,-3.82425164,-2.04437277,-17.65340155,-6.22289831,7.79562687,4.85971654,0,0,0,0
2.195,-0.49631907,5.6745621,91.03211196,0.59082901,0.96843161,-0.71490707,-4.82265773,-1.22847029,-29.10807877,-6.17838458,10.2691762,2.70236225,0,-3.82581512,-2.04541546,-17.65342011,-6.22310344,7.79597765,4.85972732,0,0,0,0
2.2,-0.4900889,5.72484443,91.04306196,0.59088734,0.96847017,-0.71501226,-4.89597602,-1.20978276,-29.11644079,-6.15714092,10.3035677,2.72988046,0,-3.88911681,-2.05841793,-17.64228015,-6.21775274,7.82052126,4.87594795,0,0,0,0
2.205,-0.49216142,5.72248508,91.04296638,0.59093622,0.96846765,-0.7150709,-4.89696914,-1.20912462,-29.11682298,-6.15757146,10.30341487,2.72989032,0,-3.89035114,-2.05917979,-17.64264624,-6.21790014,7.82050008,4.87577132,0,0,0,0
2.21,-0.49428039,5.72028691,91.04305474,0.59098612,0.96846407,-0.71512741,-4.89800776,-1.20833214,-29.11717429,-6.15797462,10.30340933,2.72991552,0,-3.89151947,-2.0599971,-17.64304422,-6.21805064,7.82046267,4.87554067,0,0,0,0
2.215,-0.49638192,5.71816473,91.04330386,0.5910359,0.96846004,-0.71518381,-4.89914793,-1.2074872,-29.1175024,-6.15837239,10.30352795,2.72994305,0,-3.89264049,-2.06088981,-17.64346216,-6.21826714,7.82038998,4.87525294,0,0,0,0
2.22,-0.4984536,5.71609564,91.04368513,0.59108571,0.96845582,-0.71524059,-4.90041402,-1.20660667,-29.11781898,-6.15877812,10.30374922,2.72996357,0,-3.89371363,-2.06185541,-17.64389199,-6.21860279,7.82026372,4.87490538,0,0,0,0
2.225,-0.50021504,5.72077008,91.05091822,0.59113606,0.96845405,-0.71530878,-4.91595484,-1.20091718,-29.13004146,-6.14722912,10.31527918,2.72940543,0,-3.89906517,-2.06527659,-17.6516556,-6.2237763,7.81435785,4.86788904,0,0,0,0
2.23,-0.502164,5.71875258,91.05101634,0.59118508,0.96844743,-0.71536822,-4.91727313,-1.2001988,-29.12999159,-6.14814941,10.31505826,2.72958554,0,-3.90016886,-2.06632165,-17.65149928,-6.22438061,7.81425831,4.86781778,0,0,0,0
2.235,-0.50407941,5.71672961,91.05114228,0.59123325,0.96843994,-0.71543006,-4.91873543,-1.199459,-29.12997859,-6.1490514,10.31491662,2.72972676,0,-3.90122467,-2.06744329,-17.6513696,-6.22523829,7.81405909,4.86766329,0,0,0,0
2.24,-0.50592016,5.71463906,91.0512413,0.59128073,0.96843208,-0.71549487,-4.92036658,-1.19872632,-29.13001312,-6.1499266,10.31484787,2.7298236,0,-3.90225184,-2.06864156,-17.65125653,-6.22640397,7.81375249,4.86742627,0,0,0,0
2.245,-0.50541103,5.7234633,91.05671561,0.59133102,0.96843638,-0.71555571,-4.93582545,-1.19336687,-29.13329812,-6.147734,10.31838066,2.73097519,0,-3.9026627,-2.0771023,-17.6499748,-6.25099351,7.80549215,4.86075217,0,0,0,0
2.25,-0.50706485,5.72078974,91.05651589,0.59137632,0.96842845,-0.71562737,-4.93739146,-1.1926851,-29.13354462,-6.1483512,10.3183207,2.73092911,0,-3.90377141,-2.07819707,-17.64994809,-6.25172646,7.80561024,4.86050627,0,0,0,0
2.255,-0.50859138,5.71801125,91.05608759,0.59141961,0.96841994,-0.71570316,-4.9391315,-1.19199678,-29.13384691,-6.14890106,10.31834551,2.73083831,0,-3.90481694,-2.07936525,-17.64991924,-6.25288595,7.80562328,4.86017615,0,0,0,0
2.26,-0.50998722,5.71510113,91.05538827,0.59146151,0.96841123,-0.71578276,-4.9410066,-1.19128923,-29.13420777,-6.14934263,10.31846867,2.7307064,0,-3.90582876,-2.08061524,-17.64989966,-6.25446641,7.80556824,4.85975732,0,0,0,0
2.265,-0.5034972,5.71797399,91.05591512,0.59151724,0.96840531,-0.71586134,-4.95645827,-1.17648378,-29.13996022,-6.13321803,10.32472559,2.73075318,0,-3.89787748,-2.09581772,-17.65702491,-6.28669473,7.81115738,4.84300326,0,0,0,0
2.27,-0.49441869,5.71300027,91.05233319,0.59156406,0.96839314,-0.71594757,-4.95904923,-1.16293353,-29.13895577,-6.12584686,10.3163459,2.73277233,0,-3.8950431,-2.10889507,-17.65189759,-6.29460948,7.82973964,4.83968253,0,0,0,0
2.275,-0.49571259,5.70945005,91.05158767,0.59160065,0.96838326,-0.71603577,-4.96078034,-1.16251213,-29.13908989,-6.12670774,10.31635478,2.73262997,0,-3.89623071,-2.10981544,-17.65181457,-6.29565059,7.82961202,4.83959604,0,0,0,0
2.28,-0.49525186,5.70464913,91.0440883,0.59164404,0.9683716,-0.71612427,-4.9622206,-1.15986987,-29.14013964,-6.12296455,10.31967704,2.73195321,0,-3.89572277,-2.11236571,-17.65290275,-6.29963315,7.83075044,4.8383342,0,0,0,0
2.285,-0.49627878,5.70077706,91.04364917,0.59167876,0.96836222,-0.71621492,-4.96375064,-1.15915255,-29.13993832,-6.12367182,10.31986195,2.73205216,0,-3.89711454,-2.11324712,-17.6531615,-6.30057367,7.83099017,4.83809285,0,0,0,0
2.29,-0.48741722,5.68859579,91.03303365,0.59173164,0.96833853,-0.71631457,-4.96143528,-1.14475331,-29.12836311,-6.11185272,10.33282572,2.74005182,0,-3.89227164,-2.12392855,-17.6660824,-6.2992991,7.84748991,4.83185916,0,0,0,0
2.295,-0.48223493,5.68125395,91.02026517,0.59177547,0.96832363,-0.71640361,-4.95811702,-1.13855661,-29.12152324,-6.11064699,10.33619072,2.74416983,0,-3.89201465,-2.13021188,-17.66949345,-6.30004609,7.85610584,4.8337315,0,0,0,0
2.3,-0.48354018,5.67713145,91.02001579,0.59181157,0.96831377,-0.71649805,-4.95979216,-1.13769311,-29.121238,-6.11174937,10.33626758,2.74434083,0,-3.89349466,-2.13099424,-17.669761,-6.30059792,7.85637433,4.83367682,0,0,0,0
2.305,-0.47693749,5.66344648,91.00812151,0.59186305,0.96829007,-0.71660132,-4.95524998,-1.12694341,-29.11436328,-6.10143459,10.34920786,2.75065665,0,-3.89476223,-2.13676616,-17.67822627,-6.28465581,7.87049458,4.83462735,0,0,0,0
2.31,-0.47807152,5.65946696,91.00766167,0.59190155,0.96828087,-0.71669337,-4.95659786,-1.12575489,-29.11378711,-6.10256319,10.34932625,2.75107851,0,-3.89649788,-2.13750358,-17.67844108,-6.28525066,7.87077091,4.83469087,0,0,0,0
2.315,-0.46550734,5.64458086,90.98913382,0.59196414,0.96825508,-0.71680126,-4.94966583,-1.1088712,-29.0977625,-6.09353717,10.3649674,2.7651058,0,-3.90064487,-2.14865577,-17.68790811,-6.26314759,7.88710665,4.83813414,0,0,0,0
2.32,-0.46684413,5.64073916,90.98866991,0.59200671,0.96824631,-0.71689316,-4.95109014,-1.10774585,-29.09727222,-6.09472494,10.36500346,2.7655059,0,-3.90235635,-2.14953535,-17.6881772,-6.26379053,7.88727315,4.83814947,0,0,0,0
2.325,-0.44827287,5.63111016,90.96412178,0.59207935,0.96822761,-0.71698938,-4.94519975,-1.08699585,-29.07109424,-6.09286961,10.37773212,2.79086271,0,-3.90869538,-2.16843321,-17.70915381,-6.2486124,7.90297595,4.84368439,0,0,0,0
2.33,-0.44722369,5.623408,90.95652284,0.59213406,0.96821487,-0.71708935,-4.94516316,-1.08190127,-29.07199365,-6.08713689,10.38357628,2.79299712,0,-3.91092645,-2.17034736,-17.71466327,-6.24249649,7.90803168,4.84542047,0,0,0,0
2.335,-0.44882007,5.6195967,90.95608294,0.59218144,0.96820839,-0.71717985,-4.94664529,-1.08075131,-29.07171867,-6.08803907,10.38372606,2.79332094,0,-3.91252613,-2.1713345,-17.71488892,-6.24289998,7.90825072,4.84544704,0,0,0,0
2.34,-0.43283326,5.6108185,90.93843465,0.59225107,0.96819121,-0.71727403,-4.94616395,-1.05953228,-29.05450444,-6.077448,10.39690454,2.81496891,0,-3.91809402,-2.18816338,-17.72937126,-6.22824333,7.92326394,4.85009222,0,0,0,0
2.345,-0.43208336,5.60584998,90.93115125,0.59230808,0.96818185,-0.71736481,-4.94769112,-1.05511914,-29.05528528,-6.07325571,10.40055363,2.81735815,0,-3.92037729,-2.19105821,-17.73309688,-6.2268556,7.92679245,4.85093384,0,0,0,0
2.35,-0.43386897,5.60242276,90.93078129,0.59235769,0.96817532,-0.71744748,-4.94918992,-1.05397651,-29.05507819,-6.07405807,10.40066458,2.81767612,0,-3.92179811,-2.1921909,-17.73336211,-6.22731986,7.92702101,4.85084979,0,0,0,0
2.355,-0.42281142,5.59569636,90.92118863,0.59242377,0.96815971,-0.71753872,-4.95334379,-1.03578849,-29.04517346,-6.05978755,10.41232439,2.83318341,0,-3.92573843,-2.20560086,-17.7463511,-6.21846573,7.94014847,4.8486351,0,0,0,0
2.36,-0.4223851,5.5937925,90.91393693,0.59247988,0.96815305,-0.71761026,-4.9558698,-1.03258325,-29.04536491,-6.05816747,10.41307786,2.8354,0,-3.92811652,-2.20885603,-17.74699263,-6.22088054,7.94143617,4.84926656,0,0,0,0
2.365,-0.4242342,5.59109789,90.91371787,0.5925292,0.96814546,-0.71767804,-4.95728144,-1.03151986,-29.04520647,-6.05886522,10.41310024,2.83569488,0,-3.92922345,-2.21005522,-17.74726262,-6.22128118,7.94161908,4.8490838,0,0,0,0
2.37,-0.42600908,5.58849392,90.91326547,0.59257895,0.96813797,-0.71774215,-4.95865909,-1.03032147,-29.04510015,-6.05924093,10.41332245,2.83600203,0,-3.93028391,-2.21133635,-17.74757385,-6.2216314,7.94183888,4.84882668,0,0,0,0
2.375,-0.42765375,5.58606736,90.91265232,0.59262886,0.96813097,-0.71780132,-4.96004416,-1.02895328,-29.04502292,-6.05924409,10.41377925,2.83635828,0,-3.93123025,-2.21272725,-17.74797087,-6.22194251,7.94209321,4.84845729,0,0,0,0
2.38,-0.41160542,5.58904267,90.90716162,0.59270061,0.9681253,-0.71786935,-4.97822822,-1.00192847,-29.03697928,-6.03482454,10.42531133,2.85552323,0,-3.93669812,-2.23488277,-17.76112789,-6.22655315,7.95277098,4.83602085,0,0,0,0
2.385,-0.41382876,5.58688671,90.90659057,0.59275289,0.96812111,-0.71792523,-4.97935682,-1.00091891,-29.03720348,-6.03553288,10.42516784,2.85552179,0,-3.93773361,-2.23585593,-17.76096496,-6.22718698,7.95274563,4.83599159,0,0,0,0
2.39,-0.41593835,5.58511348,90.90615383,0.59280404,0.96811691,-0.71797402,-4.98047397,-1.0000007,-29.03742601,-6.03599295,10.42518055,2.85553295,0,-3.93848947,-2.23702643,-17.76082631,-6.2278428,7.95264363,4.8358737,0,0,0,0
2.395,-0.41799577,5.58356862,90.90590607,0.59285456,0.96811511,-0.71801943,-4.98165286,-0.9989618,-29.03764413,-6.03630491,10.42534862,2.85556348,0,-3.93903327,-2.23825858,-17.7606982,-6.22864295,7.95242166,4.83567224,0,0,0,0
2.4,-0.42012961,5.58209333,90.90591084,0.59290708,0.9681131,-0.71806359,-4.98288449,-0.9977944,-29.0378421,-6.03651416,10.42565933,2.8556128,0,-3.93950855,-2.23964175,-17.76056873,-6.22966677,7.95204967,4.835393,0,0,0,0
2.405,-0.41752225,5.58719846,90.91793065,0.59296517,0.96811698,-0.71810382,-4.9993636,-0.9847192,-29.04369085,-6.02136573,10.43992422,2.85639651,0,-3.93251473,-2.25254781,-17.75697008,-6.25589205,7.93906358,4.8279589,0,0,0,0
2.41,-0.41974028,5.58569573,90.9180639,0.5930173,0.96811586,-0.71814645,-5.0002208,-0.9836482,-29.04388087,-6.02189108,10.43976683,2.8563961,0,-3.93310813,-2.25380681,-17.75673887,-6.25621612,7.93916275,4.82782956,0,0,0,0
2.415,-0.41415985,5.5887433,90.93306392,0.59307267,0.96811732,-0.71819171,-5.01415168,-0.96770173,-29.0581406,-6.00830793,10.44224784,2.85301378,0,-3.92892061,-2.26848985,-17.74033244,-6.27278045,7.93806439,4.82408546,0,0,0,0
2.42,-0.41649603,5.58739052,90.93340914,0.59312547,0.96811585,-0.71823109,-5.01480613,-0.96668037,-29.05812794,-6.00892087,10.44199817,2.85309734,0,-3.92950421,-2.26963101,-17.74021208,-6.27296339,7.93816003,4.82390952,0,0,0,0
2.425,-0.41765665,5.58709387,90.94150309,0.5931743,0.96811384,-0.71827506,-5.01897611,-0.96274351,-29.05859336,-6.00774908,10.44214096,2.85351035,0,-3.92872173,-2.27356877,-17.73778715,-6.27639477,7.93692242,4.82193892,0,0,0,0
2.43,-0.41974845,5.58566066,90.94112642,0.59322333,0.96811216,-0.7183185,-5.01976547,-0.96174896,-29.05884392,-6.00806838,10.44218577,2.85341833,0,-3.92937299,-2.27473518,-17.73740919,-6.27702584,7.9367474,4.82186205,0,0,0,0
2.435,-0.42173683,5.58415329,90.94095005,0.59327248,0.96810798,-0.71836305,-5.02076825,-0.96070207,-29.05904188,-6.00838835,10.44231831,2.8533513,0,-3.93001154,-2.27591605,-17.73705746,-6.27775847,7.93648314,4.8217501,0,0,0,0
2.44,-0.42362849,5.5826293,90.94088224,0.59331943,0.96810353,-0.7184096,-5.02191879,-0.95959461,-29.05920591,-6.00865057,10.44253773,2.8533044,0,-3.93066122,-2.2771018,-17.73671968,-6.27856586,7.93615134,4.82161452,0,0,0,0
2.445,-0.42539872,5.5810722,90.94084962,0.59336449,0.96809874,-0.71845776,-5.02319856,-0.95844362,-29.05934531,-6.0088224,10.44283758,2.85327706,0,-3.93136028,-2.27827094,-17.73639466,-6.27942316,7.93576793,4.82146507,0,0,0,0
2.45,-0.42704623,5.57948338,90.94078487,0.59340803,0.96809402,-0.71850721,-5.02458639,-0.95725197,-29.05946637,-6.00887287,10.44321435,2.85327161,0,-3.93212639,-2.27941627,-17.73608247,-6.28030044,7.93534219,4.82130871,0,0,0,0
2.455,-0.41479399,5.60708642,90.95570991,0.59346198,0.96811775,-0.71858823,-5.07852798,-0.92702425,-29.07034035,-5.96957912,10.43907,2.84825607,0,-3.9628439,-2.2992568,-17.71100271,-6.28476521,7.93655848,4.8098693,0,0,0,0
2.46,-0.41648692,5.60532163,90.95531526,0.59350236,0.96811344,-0.7186372,-5.0793967,-0.92648382,-29.07026287,-5.97004271,10.43912988,2.84827621,0,-3.96370883,-2.30005094,-17.71095713,-6.28507307,7.93638753,4.80974213,0,0,0,0
2.465,-0.41813906,5.60337689,90.95473,0.59354271,0.96810931,-0.7186896,-5.08039074,-0.92569874,-29.07018617,-5.97040486,10.43927195,2.84833246,0,-3.96468299,-2.30070627,-17.7109229,-6.28541026,7.9361813,4.80961993,0,0,0,0
2.47,-0.41749131,5.60406813,90.94772142,0.59359287,0.96810823,-0.7187505,-5.0909904,-0.91910447,-29.06097496,-5.95545851,10.44820957,2.85454,0,-3.97381545,-2.30214209,-17.71598356,-6.27690882,7.92986545,4.80303862,0,0,0,0
2.475,-0.41882809,5.6021518,90.94709945,0.59362818,0.96810692,-0.71880512,-5.09206216,-0.9183901,-29.06093809,-5.95611431,10.44805555,2.85455557,0,-3.97495024,-2.30260574,-17.71586452,-6.27734591,7.92974741,4.80295431,0,0,0,0
2.48,-0.41530087,5.60928107,90.9341977,0.59368011,0.96811424,-0.71887279,-5.10891249,-0.90988868,-29.04831454,-5.9421586,10.44801442,2.86348107,0,-3.99607271,-2.30480312,-17.72195154,-6.26180688,7.92818319,4.79247518,0,0,0,0
2.485,-0.41672864,5.6072884,90.9335814,0.59371623,0.96811378,-0.71892815,-5.11003913,-0.90945565,-29.04838695,-5.94274426,10.44793045,2.86341614,0,-3.99717267,-2.30547348,-17.7217713,-6.26232374,7.92805907,4.79239588,0,0,0,0
2.49,-0.41776608,5.60593997,90.92627773,0.59376129,0.9681127,-0.71898325,-5.11310001,-0.9082845,-29.04889581,-5.93881996,10.44934389,2.86352592,0,-4.00081124,-2.30556034,-17.72115885,-6.26153185,7.92792567,4.79152294,0,0,0,0
2.495,-0.41921595,5.60374213,90.92592659,0.59379778,0.96811228,-0.7190399,-5.11426348,-0.90745529,-29.04870042,-5.93914336,10.44936144,2.86371437,0,-4.00199856,-2.30604761,-17.7213045,-6.26167951,7.92799065,4.7912928,0,0,0,0
2.5,-0.41872164,5.60313973,90.91540277,0.59384879,0.96810956,-0.71911324,-5.12677665,-0.90053419,-29.03663533,-5.91804,10.4538446,2.87493852,0,-4.0154289,-2.30529136,-17.73093822,-6.2453794,7.9333116,4.78185531,0,0,0,0
2.505,-0.4195034,5.60296283,90.90755225,0.5938885,0.9681094,-0.71917107,-5.13041267,-0.90012405,-29.03623871,-5.91659757,10.45349298,2.87559285,0,-4.01972673,-2.30564071,-17.72992253,-6.24655952,7.9324571,4.78129816,0,0,0,0
2.51,-0.42104671,5.60063868,90.90707046,0.59392479,0.9681074,-0.71922918,-5.13170637,-0.89962045,-29.03602674,-5.91697661,10.45343472,2.87578898,0,-4.02097357,-2.30638193,-17.73008179,-6.24686604,7.93252326,4.78107649,0,0,0,0
2.515,-0.42352469,5.60182452,90.89377089,0.5939699,0.96810522,-0.71930678,-5.14684963,-0.8970422,-29.02115312,-5.89558198,10.45564164,2.88966151,0,-4.03355011,-2.30308874,-17.74463716,-6.2378453,7.93971707,4.77128737,0,0,0,0
2.52,-0.42481756,5.60134877,90.88636579,0.59401095,0.96810386,-0.71936185,-5.14943151,-0.89691707,-29.0214146,-5.89480067,10.45563382,2.88982029,0,-4.03682662,-2.30359923,-17.74390377,-6.24037134,7.9387645,4.7716634,0,0,0,0
2.525,-0.42853684,5.60540053,90.87631165,0.59405434,0.96810512,-0.71942807,-5.16294989,-0.8973216,-29.00964701,-5.88288809,10.45669568,2.90024836,0,-4.04567618,-2.30173234,-17.75840634,-6.24319626,7.94142528,4.76678491,0,0,0,0
2.53,-0.42991397,5.60338154,90.87065808,0.59409051,0.96810044,-0.71948983,-5.1651154,-0.89738533,-29.00993288,-5.88163369,10.45732728,2.90040879,0,-4.04762988,-2.30248156,-17.75888742,-6.24498206,7.94112161,4.76762653,0,0,0,0
2.535,-0.43339865,5.60162748,90.86211239,0.59413248,0.96809643,-0.71955579,-5.17187718,-0.89736348,-29.00111978,-5.87065236,10.46035183,2.90844123,0,-4.04815126,-2.30185144,-17.77327179,-6.25179144,7.94179126,4.76737801,0,0,0,0
2.54,-0.43482839,5.59922774,90.85554751,0.59417143,0.96809246,-0.71961348,-5.17326686,-0.89741832,-29.00102405,-5.86922217,10.46099588,2.90888243,0,-4.04888075,-2.30310901,-17.77463848,-6.25433256,7.94115549,4.76876026,0,0,0,0
2.545,-0.436698,5.59336143,90.84535444,0.59421717,0.96808344,-0.71967495,-5.17528244,-0.89582018,-28.98798671,-5.85768221,10.46459838,2.91972412,0,-4.04379455,-2.30485052,-17.79838198,-6.26290106,7.93902038,4.77160332,0,0,0,0
2.55,-0.43767011,5.58987534,90.83768785,0.59425991,0.96807844,-0.71973581,-5.1753215,-0.89543052,-28.98815051,-5.85697685,10.46512253,2.91981917,0,-4.0442416,-2.30632418,-17.80047157,-6.2648576,7.93823461,4.77442042,0,0,0,0
2.555,-0.43527655,5.57605582,90.82230124,0.59431083,0.96806497,-0.71979326,-5.16659441,-0.89047694,-28.96897545,-5.84821383,10.46800295,2.93349961,0,-4.03346311,-2.31195113,-17.84043064,-6.26703118,7.93317478,4.78940991,0,0,0,0
2.56,-0.43674612,5.5725789,90.81565382,0.59435883,0.96805893,-0.7198534,-5.16622341,-0.89015332,-28.97027297,-5.84800911,10.46847398,2.93257218,0,-4.03434507,-2.31320357,-17.8411451,-6.268585,7.93271434,4.79258905,0,0,0,0
2.565,-0.43852167,5.56966476,90.81489748,0.59440172,0.96805527,-0.71991325,-5.16700522,-0.8895607,-28.97018018,-5.84839967,10.46854772,2.93264726,0,-4.03536415,-2.31436304,-17.8416555,-6.26881313,7.93263258,4.79281858,0,0,0,0
2.57,-0.43006725,5.54730881,90.7862813,0.59447291,0.96803493,-0.71996964,-5.1462808,-0.87976825,-28.94098121,-5.84137899,10.46620284,2.94980516,0,-4.02437132,-2.32382491,-17.89411124,-6.25642485,7.91790972,4.82282237,0,0,0,0
2.575,-0.43218403,5.54442686,90.78568442,0.59452286,0.96802956,-0.72002886,-5.14721566,-0.87901845,-28.94129822,-5.84185876,10.4663593,2.94958092,0,-4.02545776,-2.3247756,-17.8944973,-6.25661552,7.91811663,4.82299257,0,0,0,0
2.58,-0.4260686,5.52442574,90.76173313,0.59459205,0.96800896,-0.72009455,-5.13046206,-0.87051645,-28.91993432,-5.83383411,10.46677795,2.95486877,0,-4.02049907,-2.33180495,-17.94924265,-6.23771106,7.91506886,4.87302769,0,0,0,0
2.585,-0.42821756,5.52154916,90.76118213,0.59464438,0.96800237,-0.72015497,-5.13149289,-0.86953002,-28.92031908,-5.83428497,10.46695341,2.9546058,0,-4.02163923,-2.33260728,-17.94965722,-6.23794707,7.91533903,4.87313192,0,0,0,0
2.59,-0.42683205,5.5093348,90.75235396,0.59470511,0.96798438,-0.72023411,-5.12846633,-0.86232778,-28.92351015,-5.82068021,10.47350257,2.95251889,0,-4.02385618,-2.33379166,-17.96456393,-6.21986947,7.92334515,4.87783172,0,0,0,0
2.595,-0.42064689,5.49907334,90.73968779,0.59477171,0.96796926,-0.72030559,-5.12441352,-0.85149571,-28.91194928,-5.81214973,10.47245138,2.95850484,0,-4.02808018,-2.34044049,-17.98163084,-6.20141457,7.92623662,4.8903932,0,0,0,0
2.6,-0.41437295,5.49034404,90.72580275,0.59483093,0.96795666,-0.72038365,-5.12213909,-0.84169044,-28.90119563,-5.80436571,10.47132036,2.96260139,0,-4.03191491,-2.34730028,-18.0019853,-6.1888839,7.92945227,4.90335195,0,0,0,0
2.605,-0.40835324,5.48192424,90.71249201,0.59489682,0.96794263,-0.72046098,-5.11997718,-0.83147233,-28.88960581,-5.79666123,10.47115042,2.96597555,0,-4.03465452,-2.35530586,-18.02174873,-6.1790856,7.93522786,4.91914983,0,0,0,0
2.61,-0.40796158,5.47707876,90.70357725,0.59495291,0.96793336,-0.72053613,-5.12014524,-0.82831855,-28.88922519,-5.79390043,10.47230347,2.96551891,0,-4.03609271,-2.35764054,-18.02452004,-6.17849651,7.93665038,4.92320755,0,0,0,0
2.615,-0.40104786,5.46505215,90.69237899,0.59501123,0.96791317,-0.72062366,-5.1165647,-0.816428,-28.88187482,-5.78306254,10.47707894,2.96952543,0,-4.03668215,-2.36529387,-18.03807832,-6.16507407,7.94574007,4.92941943,0,0,0,0
2.62,-0.38251576,5.45438662,90.67055417,0.59508686,0.96789899,-0.72068578,-5.10602143,-0.7950935,-28.84901103,-5.78370158,10.4619597,2.97172211,0,-4.02084728,-2.39321416,-18.09785899,-6.18875315,7.96167771,4.98061201,0,0,0,0
2.625,-0.38233028,5.44080373,90.66828526,0.59513228,0.96787502,-0.7207821,-5.10333445,-0.78915292,-28.84968235,-5.77055532,10.47424295,2.9690798,0,-4.01874642,-2.39462273,-18.10369191,-6.17640218,7.96989173,4.99224318,0,0,0,0
2.63,-0.36379179,5.42272974,90.65132828,0.5951999,0.96784979,-0.72084565,-5.08530448,-0.76756455,-28.82300023,-5.77220448,10.47121295,2.96843348,0,-3.99321854,-2.4228889,-18.146354,-6.20241585,7.99031804,5.04777034,0,0,0,0
2.635,-0.36622988,5.39640516,90.65104045,0.59524643,0.96781335,-0.72092767,-5.06950995,-0.76245599,-28.80780832,-5.75568937,10.48124511,2.95170584,0,-3.96125429,-2.4300953,-18.1946198,-6.2211954,8.00495782,5.1433261,0,0,0,0
2.64,-0.36490673,5.39249402,90.6423131,0.59529275,0.96780256,-0.72101216,-5.06958909,-0.7595895,-28.8121169,-5.75559651,10.48221115,2.94869956,0,-3.96358241,-2.43360328,-18.19996848,-6.22201058,8.00837025,5.14220869,0,0,0,0
