time,pelvis_tilt,pelvis_list,pelvis_rotation,pelvis_tx,pelvis_ty,pelvis_tz,hip_flexion_r,hip_adduction_r,hip_rotation_r,knee_angle_r,ankle_angle_r,hip_flexion_l,hip_adduction_l,hip_rotation_l,knee_angle_l,ankle_angle_l,lumbar_extension
8.71000000,-3.53221360,1.47174778,29.93221870,0.02067211,0.95013837,-0.79069896,18.47668369,-17.15911346,0.00000000,-15.87275072,-11.98842212,5.05818180,-3.08910986,0.00000000,-19.60439174,6.45636460,-5.00000214
8.71500000,-3.57308950,1.53388989,30.10735679,0.02381404,0.94930348,-0.78928061,18.53818781,-17.15530993,0.00000000,-16.39934129,-11.25002270,5.16503198,-3.21690254,0.00000000,-19.99121046,6.41387417,-5.00000214
8.72000000,-3.52725783,1.53706573,30.24707385,0.02701243,0.94875882,-0.78780843,18.44143901,-17.01684127,0.00000000,-16.70122026,-10.67121735,5.26366268,-3.43363758,0.00000000,-20.43827966,6.45725734,-5.00000214
8.72500000,-3.52697006,1.49580623,30.40141147,0.03036227,0.94800212,-0.78629806,18.40852065,-16.84524254,0.00000000,-17.04548726,-9.83184534,5.42864371,-3.68492023,0.00000000,-20.92102660,6.65700324,-5.00000214
8.73000000,-3.46469342,1.40746257,30.53468940,0.03379854,0.94754753,-0.78480803,18.34068008,-16.57426322,0.00000000,-17.39698587,-9.12472359,5.53844623,-4.02706251,0.00000000,-21.34133882,6.58258615,-5.00000214
8.73500000,-3.43489280,1.43837758,30.62153469,0.03711586,0.94703011,-0.78324118,18.26831471,-16.43156352,0.00000000,-17.73834984,-8.47223966,5.58925486,-4.22209838,0.00000000,-21.72814357,6.64147195,-5.00000214
8.74000000,-3.46764256,1.39786457,30.57488164,0.04009236,0.94621864,-0.78142934,18.26808797,-16.21631901,0.00000000,-17.88881100,-7.80239623,5.76344026,-4.43954582,0.00000000,-22.15727077,6.68293367,-5.00000214
8.74500000,-3.46036763,1.38712254,30.56722206,0.04313845,0.94567799,-0.77957979,18.28899801,-15.99091279,0.00000000,-18.23495366,-7.09123523,5.91273740,-4.66862258,0.00000000,-22.63070005,6.68305245,-5.00000214
8.75000000,-3.40605005,1.35499976,30.55816033,0.04646591,0.94543751,-0.77794685,18.19831434,-15.72146347,0.00000000,-18.46642340,-6.69736011,5.95065987,-4.92550734,0.00000000,-22.97278964,6.57105627,-5.00000214
8.75500000,-3.45035648,1.26076672,30.54114483,0.04975689,0.94482879,-0.77614294,18.20777857,-15.43514359,0.00000000,-18.64833436,-5.89676358,6.20461010,-5.20601760,0.00000000,-23.50165540,6.51984538,-5.00000214
8.76000000,-3.43188928,1.21845182,30.44287127,0.05251430,0.94434015,-0.77411473,18.26855750,-15.15124268,0.00000000,-18.93058750,-5.35456645,6.36840979,-5.44732574,0.00000000,-23.99584204,6.59146389,-5.00000214
8.76500000,-3.39116410,1.21957294,30.38647475,0.05567193,0.94411788,-0.77224026,18.18815855,-14.89575680,0.00000000,-19.10696533,-4.85452969,6.45933264,-5.67548526,0.00000000,-24.43057914,6.39058231,-5.00000214
8.77000000,-3.39015351,1.10546191,30.33463521,0.05899436,0.94380995,-0.77050106,18.16978022,-14.55915349,0.00000000,-19.25609498,-4.27977466,6.65325127,-5.98554220,0.00000000,-24.90618856,6.25984881,-5.00000214
8.77500000,-3.32513032,0.98558778,30.29889615,0.06211459,0.94354544,-0.76868034,18.09844711,-14.19247803,0.00000000,-19.41464669,-3.85431274,6.88014254,-6.31901742,0.00000000,-25.50879189,6.07551876,-5.00000214
8.78000000,-3.27560133,0.91299240,30.27508177,0.06528581,0.94343495,-0.76690979,18.01015388,-13.90124270,0.00000000,-19.55112102,-3.46085387,7.03216004,-6.60804673,0.00000000,-25.97548616,5.78513323,-5.00000214
8.78500000,-3.23506731,0.74422821,30.23420131,0.06847369,0.94336237,-0.76497365,17.97908412,-13.51539405,0.00000000,-19.69105999,-3.05876293,7.31726547,-6.98235506,0.00000000,-26.59059872,5.48988951,-5.00000214
8.79000000,-3.17704186,0.57948281,30.19604339,0.07148698,0.94333751,-0.76295846,17.95506370,-13.12777541,0.00000000,-19.84081710,-2.77197370,7.59212337,-7.36706482,0.00000000,-27.18571006,5.19208515,-5.00000214
8.79500000,-3.15172520,0.24095319,30.17727066,0.07412243,0.94326345,-0.76103907,17.99784273,-12.60626257,0.00000000,-19.85555900,-2.60073868,8.10187954,-7.88989592,0.00000000,-27.95078007,4.88961086,-5.00000214
8.80000000,-3.01520860,0.06075381,30.10594133,0.07710079,0.94341608,-0.75899244,17.90638780,-12.16436273,0.00000000,-19.97060051,-2.36321462,8.37220309,-8.30401770,0.00000000,-28.65357308,4.45167748,-5.00000214
8.80500000,-3.03145742,-0.30018599,30.11202843,0.08029546,0.94332781,-0.75718052,17.95025261,-11.65140844,0.00000000,-19.97593940,-2.24243676,8.92486555,-8.83047281,0.00000000,-29.45235692,4.11422625,-5.00000214
8.81000000,-2.92683834,-0.40109360,30.10655349,0.08306518,0.94347734,-0.75524184,17.80347808,-11.31615935,0.00000000,-20.02619580,-1.99877679,9.24987775,-9.14604571,0.00000000,-30.25080723,3.69237232,-5.00000214
8.81500000,-2.81187607,-0.51539573,30.11830092,0.08595354,0.94389895,-0.75322605,17.61752897,-10.96607297,0.00000000,-20.02417148,-1.87811574,9.57073816,-9.47889455,0.00000000,-31.00900455,3.09921495,-5.00000214
8.82000000,-2.76495613,-0.86551167,30.08699282,0.08878192,0.94409423,-0.75133769,17.54722067,-10.43152558,0.00000000,-19.86410536,-1.78862102,10.11933717,-10.00593426,0.00000000,-31.88150464,2.67119203,-5.00000214
8.82500000,-2.69579706,-1.10194421,30.10834020,0.09166039,0.94437743,-0.74940995,17.37299481,-9.98717475,0.00000000,-19.70239530,-1.67063732,10.63893163,-10.43032379,0.00000000,-32.79259695,2.14613675,-5.00000214
8.83000000,-2.60506207,-1.29585383,30.10441863,0.09452400,0.94477941,-0.74748461,17.13017717,-9.57282697,0.00000000,-19.47338865,-1.47715201,11.05489684,-10.80350434,0.00000000,-33.61159986,1.48904748,-5.00000214
8.83500000,-2.54353085,-1.52505246,30.11576728,0.09733525,0.94519568,-0.74562927,16.90599915,-9.13778020,0.00000000,-19.19321516,-1.50452726,11.62301731,-11.19753343,0.00000000,-34.59136052,0.89415488,-5.00000214
8.84000000,-2.45942051,-1.77439525,30.12432474,0.10019352,0.94562915,-0.74363685,16.65851722,-8.66105206,0.00000000,-18.90803226,-1.42507138,12.17362808,-11.60255919,0.00000000,-35.53701568,0.32315683,-5.00000214
8.84500000,-2.39501440,-1.82004442,30.15081262,0.10278180,0.94607007,-0.74174151,16.33218817,-8.38700426,0.00000000,-18.61449041,-1.18810565,12.65877960,-11.79172467,0.00000000,-36.50141449,-0.34598386,-5.00000214
8.85000000,-2.36643827,-2.16603471,30.17858890,0.10566945,0.94640290,-0.73976526,16.12764195,-7.85289535,0.00000000,-18.20430370,-1.20747376,13.40353509,-12.27920318,0.00000000,-37.55491229,-1.05802430,-5.00000214
8.85500000,-2.28047463,-2.29641610,30.18487446,0.10826569,0.94689901,-0.73787300,15.81490479,-7.48239082,0.00000000,-17.88161498,-1.08069955,13.96369102,-12.54165682,0.00000000,-38.56449636,-1.79678283,-5.00000214
8.86000000,-2.23748481,-2.47574779,30.25587299,0.11079009,0.94725092,-0.73590649,15.55408569,-7.10179661,0.00000000,-17.53440518,-0.97342143,14.69456146,-12.84535417,0.00000000,-39.67289732,-2.59753441,-5.00000214
8.86500000,-2.16386389,-2.59925917,30.31663976,0.11315680,0.94768918,-0.73400578,15.25619165,-6.77083201,0.00000000,-17.18262674,-0.85182174,15.34833631,-13.07886667,0.00000000,-40.74885259,-3.33162237,-5.00000214
8.87000000,-2.17793021,-2.84742367,30.36375500,0.11614140,0.94797327,-0.73228126,15.04080344,-6.35797009,0.00000000,-16.81424898,-0.80928607,16.11328129,-13.39588827,0.00000000,-41.81536978,-4.24431571,-5.00000214
8.87500000,-2.11832965,-3.01845836,30.46223608,0.11895871,0.94824096,-0.73032805,14.76350030,-5.97316307,0.00000000,-16.50409092,-0.74255833,16.80338989,-13.69921499,0.00000000,-42.84970412,-5.00171958,-5.00000214
8.88000000,-2.04552600,-3.11822209,30.53473140,0.12147169,0.94869189,-0.72862736,14.45198127,-5.66983246,0.00000000,-16.17947371,-0.66462295,17.44259627,-13.88268197,0.00000000,-43.89152263,-5.65349024,-5.00000214
8.88500000,-2.00056823,-3.27248154,30.62966162,0.12404964,0.94912685,-0.72663990,14.21614458,-5.31595713,0.00000000,-15.88464635,-0.68161198,18.14196393,-14.13924805,0.00000000,-44.88205845,-6.35627269,-5.00000214
8.89000000,-1.97456770,-3.33932054,30.76078350,0.12662861,0.94949711,-0.72510040,13.91574000,-5.08225760,0.00000000,-15.55069021,-0.60432576,18.81225788,-14.24702272,0.00000000,-45.90738813,-6.81876856,-5.00000214
8.89500000,-1.91219808,-3.40164697,30.89628951,0.12906484,0.94980583,-0.72357058,13.60391226,-4.83883820,0.00000000,-15.25891212,-0.49208619,19.46346427,-14.35433577,0.00000000,-46.95131242,-7.29588181,-5.00000214
8.90000000,-1.85667463,-3.47547324,31.02919900,0.13150855,0.95022664,-0.72199817,13.30684507,-4.58540725,0.00000000,-14.97596872,-0.44273013,20.10928470,-14.45467904,0.00000000,-47.92415554,-7.56924799,-5.00000214
8.90500000,-1.77270353,-3.54535565,31.20887096,0.13391775,0.95054408,-0.72046291,12.98739231,-4.32482281,0.00000000,-14.69721995,-0.38969872,20.73732339,-14.54914834,0.00000000,-48.91245317,-7.77343546,-5.00000214
8.91000000,-1.69634130,-3.61069703,31.27520578,0.13590561,0.95100390,-0.71906750,12.74343236,-4.08843275,0.00000000,-14.46616247,-0.38644811,21.30454703,-14.59396057,0.00000000,-49.77712069,-7.91805215,-5.00000214
8.91500000,-1.65420811,-3.63482192,31.50318221,0.13877300,0.95117490,-0.71755316,12.37508054,-3.87840927,0.00000000,-14.15725412,-0.21407512,21.88484260,-14.62574890,0.00000000,-50.61997527,-8.01020814,-5.00000214
8.92000000,-1.49971347,-3.65700633,31.60561236,0.14050307,0.95159583,-0.71606748,12.07878092,-3.64134811,0.00000000,-13.98207918,-0.19134596,22.36958109,-14.63292735,0.00000000,-51.47509986,-7.95331826,-5.00000214
8.92500000,-1.39941870,-3.70081573,31.80450383,0.14293888,0.95199279,-0.71483160,11.70260198,-3.40841008,0.00000000,-13.67889398,-0.13429295,22.84384536,-14.61254222,0.00000000,-52.17299232,-7.82366215,-5.00000214
8.93000000,-1.31896901,-3.72455151,31.96639215,0.14531064,0.95243679,-0.71364825,11.35571656,-3.19849781,0.00000000,-13.38074645,-0.08794606,23.28155458,-14.54632202,0.00000000,-52.79686027,-7.75728627,-5.00000214
8.93500000,-1.25992143,-3.74221591,32.14202892,0.14762756,0.95283135,-0.71256043,11.01945091,-3.01558690,0.00000000,-13.07981424,-0.05011654,23.71022143,-14.41088962,0.00000000,-53.33614202,-7.54608312,-5.00000214
8.94000000,-1.17268115,-3.75105047,32.30181410,0.14985511,0.95332033,-0.71151289,10.65942066,-2.82811949,0.00000000,-12.77260570,-0.02751826,24.08434122,-14.25491587,0.00000000,-53.81813819,-7.27950646,-5.00000214
8.94500000,-1.14575166,-3.73338070,32.45527770,0.15182791,0.95364093,-0.71069588,10.40953878,-2.72373158,0.00000000,-12.59363006,-0.00372068,24.47800836,-13.96983694,0.00000000,-54.24670098,-7.19465379,-5.00000214
8.95000000,-1.13686471,-3.76634105,32.66753844,0.15389302,0.95395125,-0.70979326,10.10885112,-2.56924443,0.00000000,-12.23808605,0.05144816,24.93967255,-13.72984041,0.00000000,-54.64308973,-6.95371138,-5.00000214
8.95500000,-1.12707563,-3.76775334,32.84290470,0.15567486,0.95438210,-0.70895825,9.86957917,-2.46024394,0.00000000,-12.00344740,0.02417256,25.35573972,-13.40694557,0.00000000,-54.96451005,-6.72435469,-5.00000214
8.96000000,-1.11499697,-3.76966781,32.97144653,0.15792421,0.95474577,-0.70817197,9.59334865,-2.33058089,0.00000000,-11.72212289,0.03592271,25.67557183,-13.06358320,0.00000000,-55.18605926,-6.37968104,-5.00000214
8.96500000,-1.10012523,-3.76230923,33.13683723,0.15933202,0.95508474,-0.70750606,9.38823985,-2.24589513,0.00000000,-11.53531364,0.04637580,26.07312988,-12.66882194,0.00000000,-55.42337672,-6.23820203,-5.00000214
8.97000000,-1.11784145,-3.76699180,33.28175238,0.16122556,0.95537975,-0.70684900,9.17547071,-2.15043844,0.00000000,-11.30759172,0.06006692,26.42070687,-12.26708700,0.00000000,-55.51519099,-6.04579961,-5.00000214
8.97500000,-1.15643515,-3.76819706,33.54524432,0.16294362,0.95564780,-0.70623030,8.98190548,-2.07915800,0.00000000,-11.11751676,0.06649556,26.80683761,-11.82807388,0.00000000,-55.54334267,-5.91778864,-5.00000214
8.98000000,-1.23138233,-3.77564644,33.67174035,0.16489008,0.95583350,-0.70580924,8.77676943,-2.02827802,0.00000000,-10.80873284,0.09299502,27.14593610,-11.34684941,0.00000000,-55.53453564,-5.71071182,-5.00000214
8.98500000,-1.29565838,-3.78124073,33.87156708,0.16676019,0.95601770,-0.70532250,8.57255277,-1.96963786,0.00000000,-10.53207194,0.12516245,27.45930135,-10.85038457,0.00000000,-55.43289321,-5.43325420,-5.00000214
8.99000000,-1.31494690,-3.79231063,34.09806331,0.16856490,0.95619971,-0.70496552,8.34749766,-1.89316150,0.00000000,-10.30374199,0.16028945,27.76421821,-10.36109969,0.00000000,-55.30047110,-5.27014270,-5.00000214
8.99500000,-1.34269868,-3.79947741,34.33259686,0.17022980,0.95642545,-0.70433462,8.14657979,-1.81397521,0.00000000,-10.07540650,0.18306608,28.04448990,-9.89430040,0.00000000,-55.09226507,-5.10225899,-5.00000214
9.00000000,-1.37727657,-3.80508543,34.57532414,0.17203946,0.95660825,-0.70430753,7.89014289,-1.76530171,0.00000000,-9.79695175,0.22232266,28.27369916,-9.36586303,0.00000000,-54.79999911,-4.97838128,-5.00000214
9.00500000,-1.40138777,-3.80980423,34.82684356,0.17379858,0.95678217,-0.70404025,7.63430751,-1.70175876,0.00000000,-9.51238860,0.23600532,28.51473941,-8.86459297,0.00000000,-54.48766090,-4.84371212,-5.00000214
9.01000000,-1.38064442,-3.82110827,35.06200989,0.17548257,0.95703188,-0.70348540,7.41680904,-1.59276266,0.00000000,-9.33365672,0.25805760,28.65549973,-8.40707225,0.00000000,-54.03215079,-4.76411293,-5.00000214
9.01500000,-1.39294090,-3.82661871,35.38966750,0.17715646,0.95729401,-0.70346946,7.12577859,-1.54173763,0.00000000,-9.01897583,0.24907010,28.82388397,-7.90726672,0.00000000,-53.57666826,-4.68351122,-5.00000214
9.02000000,-1.39412501,-3.83849294,35.70153008,0.17918651,0.95747750,-0.70331175,6.81131809,-1.44944648,0.00000000,-8.70342912,0.25548670,28.95362873,-7.42574028,0.00000000,-53.06214539,-4.59303906,-5.00000214
9.02500000,-1.35319557,-3.84641035,35.98989325,0.18071757,0.95763854,-0.70299141,6.55479619,-1.34277873,0.00000000,-8.48841544,0.29022582,29.04594979,-6.96701811,0.00000000,-52.49224044,-4.45105346,-5.00000214
9.03000000,-1.21937857,-3.85478403,36.29180598,0.18270006,0.95800173,-0.70300366,6.08217520,-1.17909447,0.00000000,-8.07488461,0.12444190,29.00990679,-6.58757034,0.00000000,-51.90954964,-4.33167948,-5.00000214
9.03500000,-1.17797398,-3.86569501,36.63807613,0.18439520,0.95808901,-0.70265788,5.81001040,-1.06088622,0.00000000,-7.86939299,0.23938985,29.05583414,-6.13520795,0.00000000,-51.18633944,-4.29430627,-5.00000214
9.04000000,-1.09987293,-3.87241217,36.98515437,0.18633168,0.95840669,-0.70272007,5.39044756,-0.93870940,0.00000000,-7.47297044,0.17220880,29.03201535,-5.73213666,0.00000000,-50.47728039,-4.10622778,-5.00000214
9.04500000,-1.06779399,-3.88354287,37.33236085,0.18804960,0.95867855,-0.70243174,5.15814166,-0.83448445,0.00000000,-7.32858052,0.25379006,29.02406895,-5.31324028,0.00000000,-49.68067820,-4.01405565,-5.00000214
9.05000000,-1.05398776,-3.88850958,37.70670919,0.18969031,0.95877094,-0.70246937,4.85814272,-0.75624862,0.00000000,-7.04113429,0.25845435,28.99648839,-4.85996761,0.00000000,-48.83713955,-3.86702240,-5.00000214
9.05500000,-0.99053209,-3.89531085,38.04137451,0.19148168,0.95879517,-0.70245548,4.53688791,-0.62841327,0.00000000,-6.78886059,0.31990001,28.94709206,-4.43010680,0.00000000,-47.97910008,-3.80133892,-5.00000214
9.06000000,-0.95771592,-3.90367653,38.37379246,0.19343461,0.95889103,-0.70237360,4.24883972,-0.50249302,0.00000000,-6.55461906,0.34559870,28.85431000,-4.04524856,0.00000000,-47.04260493,-3.73165398,-5.00000214
9.06500000,-0.80366507,-3.90112671,38.70761150,0.19466428,0.95893664,-0.70193087,3.95683502,-0.31812796,0.00000000,-6.39778584,0.36118917,28.72644167,-3.72153049,0.00000000,-46.13858066,-3.58743512,-5.00000214
9.07000000,-0.88298645,-3.91344914,39.10659659,0.19720157,0.95905829,-0.70244147,3.63395231,-0.27284844,0.00000000,-6.03053374,0.42868461,28.61124393,-3.25204936,0.00000000,-45.05925984,-3.51166759,-5.00000214
9.07500000,-0.67659030,-3.90762723,39.41479856,0.19825807,0.95926858,-0.70177697,3.38780737,-0.05258868,0.00000000,-6.01720022,0.33651373,28.41579352,-2.98334844,0.00000000,-44.05436232,-3.42071241,-5.00000214
9.08000000,-0.64877493,-3.90762704,39.76455409,0.20010664,0.95940563,-0.70184282,3.11571445,0.05681688,0.00000000,-5.80261541,0.39657366,28.20195491,-2.62120454,0.00000000,-42.92795302,-3.29240221,-5.00000214
9.08500000,-0.59768557,-3.90890755,40.12367558,0.20201861,0.95941561,-0.70226566,2.80220135,0.17145721,0.00000000,-5.58843144,0.42254921,28.01004572,-2.25727430,0.00000000,-41.85389859,-3.22436116,-5.00000214
9.09000000,-0.60941559,-3.90842258,40.49503485,0.20404907,0.95964955,-0.70229487,2.57655068,0.26372426,0.00000000,-5.41340846,0.42208152,27.77334408,-1.90619523,0.00000000,-40.64072846,-3.11380790,-5.00000214
9.09500000,-0.54341680,-3.91409516,40.82884374,0.20609385,0.95970253,-0.70244123,2.30682062,0.41500243,0.00000000,-5.26723222,0.44500769,27.47899727,-1.58756705,0.00000000,-39.38359081,-3.09699139,-5.00000214
9.10000000,-0.53923779,-3.91752744,41.26302955,0.20827253,0.95956282,-0.70270059,2.03287878,0.52758938,0.00000000,-5.06862611,0.52685336,27.26196034,-1.25667812,0.00000000,-38.20051634,-3.00311734,-5.00000214
9.10500000,-0.44736753,-3.91846611,41.56208271,0.20983839,0.95939908,-0.70343428,1.77596874,0.64277056,0.00000000,-4.98910980,0.58361665,26.96222453,-0.95703539,0.00000000,-37.06360243,-2.92597470,-5.00000214
9.11000000,-0.41624207,-3.91864805,41.91353671,0.21219160,0.95950560,-0.70350127,1.54198824,0.79751069,0.00000000,-4.87936966,0.63627233,26.68290664,-0.68812448,0.00000000,-35.88736116,-2.97792029,-5.00000214
9.11500000,-0.37983752,-3.92057661,42.28098912,0.21431264,0.95945747,-0.70364967,1.33599586,0.93986520,0.00000000,-4.82581302,0.68864737,26.36705742,-0.42540911,0.00000000,-34.61159262,-2.99435198,-5.00000214
9.12000000,-0.39317050,-3.92123627,42.65691314,0.21641680,0.95938853,-0.70416403,1.14047406,1.02164847,0.00000000,-4.72508557,0.68517233,26.04497908,-0.11763136,0.00000000,-33.32197472,-3.10318748,-5.00000214
9.12500000,-0.30505505,-3.92492276,43.01631775,0.21846473,0.95919545,-0.70462222,0.91842362,1.18834732,0.00000000,-4.73431078,0.85189112,25.71117483,0.11293606,0.00000000,-32.18749194,-3.03159922,-5.00000214
9.13000000,-0.34153893,-3.92309682,43.34291883,0.22052515,0.95891148,-0.70497469,0.83288920,1.27279350,0.00000000,-4.79112346,0.95415903,25.44258130,0.39801087,0.00000000,-31.00023242,-3.20227593,-5.00000214
9.13500000,-0.24448285,-3.92221946,43.69040360,0.22270359,0.95874276,-0.70561569,0.60658613,1.43810949,0.00000000,-4.82352818,1.16636206,25.05395425,0.59321231,0.00000000,-29.88310284,-3.16747579,-5.00000214
9.14000000,-0.12748554,-3.92014652,44.05483639,0.22469539,0.95853173,-0.70607264,0.40805320,1.62538413,0.00000000,-4.90084294,1.30743198,24.72093498,0.74466387,0.00000000,-28.87728669,-3.29594545,-5.00000214
9.14500000,-0.06506708,-3.92281022,44.45638122,0.22696529,0.95828058,-0.70637994,0.23981321,1.81088696,0.00000000,-4.95336315,1.51281775,24.43807370,0.90975854,0.00000000,-27.91171049,-3.49270467,-5.00000214
9.15000000,0.08361673,-3.92352860,44.81614411,0.22913524,0.95814394,-0.70689812,0.03217541,2.02244873,0.00000000,-5.06579571,1.71409139,24.06209451,1.02853860,0.00000000,-26.96153861,-3.71024615,-5.00000214
9.15500000,0.31667908,-3.92143918,45.07364824,0.23077811,0.95784265,-0.70773168,-0.15859955,2.25181900,0.00000000,-5.29569360,1.91001770,23.66725245,1.10062298,0.00000000,-26.15256966,-3.87495676,-5.00000214
9.16000000,0.42425023,-3.92327254,45.48872997,0.23290311,0.95764192,-0.70828862,-0.32322732,2.45418307,0.00000000,-5.42770827,2.09407141,23.37664745,1.22627176,0.00000000,-25.36284978,-4.05522989,-5.00000214
9.16500000,0.40002187,-3.92306902,45.88205523,0.23526407,0.95744331,-0.70856911,-0.33575914,2.57803834,0.00000000,-5.64609316,2.31100787,23.09662203,1.40333941,0.00000000,-24.43442796,-4.59219833,-5.00000214
9.17000000,0.53976816,-3.92476783,46.35050430,0.23714004,0.95703192,-0.70927055,-0.49165418,2.79056616,0.00000000,-5.83845803,2.52559232,22.87571578,1.50536994,0.00000000,-23.93612698,-4.67884814,-5.00000214
9.17500000,0.63626332,-3.92534090,46.83998048,0.23930058,0.95695871,-0.70980682,-0.61863661,2.99548245,0.00000000,-6.00965034,2.72769933,22.60681037,1.60087296,0.00000000,-23.37189310,-4.79498619,-5.00000214
9.18000000,0.71426780,-3.92578939,47.32857429,0.24155508,0.95665672,-0.71063303,-0.75932125,3.18108377,0.00000000,-6.16839194,2.96501140,22.38037091,1.70954657,0.00000000,-22.93969137,-4.94881121,-5.00000214
9.18500000,0.81314648,-3.92785328,47.73445084,0.24388263,0.95640324,-0.71083959,-0.79268326,3.41040882,0.00000000,-6.47549190,3.15510423,22.09062901,1.73034047,0.00000000,-22.45976083,-5.10742232,-5.00000214
9.19000000,0.99327328,-3.92858887,48.21393401,0.24599033,0.95613484,-0.71156828,-0.93604605,3.67836601,0.00000000,-6.73610344,3.37796495,21.88334689,1.72498648,0.00000000,-22.27574378,-5.34702603,-5.00000214
9.19500000,0.99075537,-3.93209233,48.67494280,0.24859945,0.95570590,-0.71219976,-0.98162624,3.83384728,0.00000000,-6.93621398,3.42824604,21.72951739,1.78976664,0.00000000,-22.13893201,-5.37971048,-5.00000214
9.20000000,1.22359018,-3.92882986,49.06282661,0.25117675,0.95572207,-0.71268246,-1.13594431,4.17253953,0.00000000,-7.25430535,3.75543980,21.35360311,1.65154033,0.00000000,-21.88564309,-5.54099035,-5.00000214
9.20500000,1.31711263,-3.92704238,49.55309489,0.25350316,0.95534054,-0.71337937,-1.21549784,4.39475860,0.00000000,-7.52046083,3.95902901,21.16231912,1.66316534,0.00000000,-21.83734712,-5.54521791,-5.00000214
9.21000000,1.30985799,-3.92703511,49.97782252,0.25595502,0.95509195,-0.71401619,-1.22115386,4.52971820,0.00000000,-7.75319026,4.00100933,21.00877327,1.73628804,0.00000000,-21.74257211,-5.48105751,-5.00000214
9.21500000,1.37968110,-3.92151765,50.30461200,0.25827009,0.95464707,-0.71487892,-1.15987889,4.70128563,0.00000000,-8.28516079,4.53588895,20.74854556,1.74733374,0.00000000,-21.60798084,-5.05831024,-5.00000214
9.22000000,1.33323112,-3.92016924,50.66743683,0.26078401,0.95449186,-0.71569365,-1.15156700,4.79860467,0.00000000,-8.49634986,4.53170921,20.61483142,1.79844892,0.00000000,-21.51562945,-5.02575479,-5.00000214
9.22500000,1.41536278,-3.91781285,50.87586713,0.26326518,0.95431635,-0.71635702,-1.03489541,4.98241652,0.00000000,-9.10578206,4.72738046,20.26717696,1.69229236,0.00000000,-21.19337257,-4.73712881,-5.00000214
9.23000000,1.36358624,-3.91215554,51.12110559,0.26572919,0.95382766,-0.71703963,-0.85352632,5.06028379,0.00000000,-9.66961534,5.07892976,20.10148261,1.70567303,0.00000000,-21.05620370,-4.36296757,-5.00000214
9.23500000,1.42433984,-3.90887843,51.33441796,0.26830076,0.95350284,-0.71781985,-0.76502120,5.22074415,0.00000000,-10.19029224,5.26764474,19.87427301,1.59357548,0.00000000,-20.93716055,-4.14432998,-5.00000214
9.24000000,1.30192580,-3.90673236,51.48095186,0.27050009,0.95292540,-0.71867947,-0.44667543,5.20056414,0.00000000,-10.93262136,5.73067962,19.90551501,1.60341836,0.00000000,-21.08017189,-3.76433281,-5.00000214
9.24500000,1.35862523,-3.90113736,51.63356031,0.27310354,0.95259242,-0.71951167,-0.30380667,5.34999386,0.00000000,-11.58400460,5.96287793,19.65637919,1.49691356,0.00000000,-20.97004542,-3.40257485,-5.00000214
9.25000000,1.35695745,-3.89310625,51.80630814,0.27541804,0.95242519,-0.72032173,-0.10711736,5.43468335,0.00000000,-12.20880798,6.00098134,19.50966403,1.40539390,0.00000000,-20.95446043,-3.25482743,-5.00000214
9.25500000,1.26593818,-3.89154052,51.96881950,0.27748734,0.95199354,-0.72117455,0.24417058,5.43170056,0.00000000,-13.03415283,6.47912383,19.55970366,1.40767940,0.00000000,-21.18154164,-2.91977458,-5.00000214
9.26000000,1.33078334,-3.88242899,52.03390198,0.27999929,0.95183082,-0.72200922,0.44964591,5.56251193,0.00000000,-13.77257239,6.46590200,19.43321672,1.24524557,0.00000000,-21.30419317,-2.79369455,-5.00000214
9.26500000,1.38550603,-3.88061696,52.26420525,0.28217060,0.95178713,-0.72261581,0.69745715,5.69657543,0.00000000,-14.52670803,6.48777022,19.34627172,1.13955626,0.00000000,-21.38841667,-2.65461888,-5.00000214
9.27000000,1.13573289,-3.87762748,52.37925826,0.28392053,0.95137342,-0.72372080,1.27047176,5.50715495,0.00000000,-15.56150158,6.82232482,19.54934760,1.27402399,0.00000000,-21.68572698,-2.44203958,-5.00000214
9.27500000,1.18750723,-3.87206272,52.54499202,0.28631338,0.95152633,-0.72447822,1.57184212,5.61238374,0.00000000,-16.46765163,6.52900401,19.41985547,1.15994970,0.00000000,-21.71284527,-2.39039151,-5.00000214
9.28000000,1.23447953,-3.86386153,52.75320475,0.28835016,0.95164107,-0.72527403,1.89211022,5.72270130,0.00000000,-17.28335226,6.44450363,19.35790767,1.05839809,0.00000000,-21.84516599,-2.39347669,-5.00000214
9.28500000,1.09313674,-3.86614201,52.98010127,0.29018177,0.95173274,-0.72608965,2.46086850,5.65352829,0.00000000,-18.42418790,6.48402404,19.39320594,1.12915789,0.00000000,-21.86653934,-2.37478660,-5.00000214
9.29000000,1.20384832,-3.86432674,53.26827652,0.29218994,0.95216971,-0.72675429,2.78660270,5.82196545,0.00000000,-19.31989584,6.21475800,19.27505388,0.98015875,0.00000000,-21.93083269,-2.38693766,-5.00000214
9.29500000,1.08854715,-3.86187848,53.39053238,0.29431022,0.95244385,-0.72731330,3.41891396,5.76929391,0.00000000,-20.54336214,5.98427114,19.25300677,0.98267819,0.00000000,-21.94498283,-2.34110718,-5.00000214
9.30000000,1.25637713,-3.85184506,53.61117273,0.29650128,0.95297906,-0.72813572,3.74360806,5.96534289,0.00000000,-21.52889480,5.64024763,19.01964736,0.77671132,0.00000000,-21.93167867,-2.34075314,-5.00000214
9.30500000,1.37019532,-3.85264354,53.93814380,0.29828563,0.95345204,-0.72905565,4.15518277,6.10583970,0.00000000,-22.57227534,5.22290094,18.76505113,0.68082235,0.00000000,-21.75017550,-2.29659370,-5.00000214
9.31000000,1.11304829,-3.85023115,54.07651861,0.30020081,0.95401871,-0.72954054,4.98929531,5.91032826,0.00000000,-23.90856239,4.68142490,18.64836596,0.82787722,0.00000000,-21.38958714,-2.43876659,-5.00000214
9.31500000,1.33035394,-3.84848431,54.42417482,0.30206220,0.95475636,-0.73035717,5.35635172,6.14520688,0.00000000,-24.94854956,4.16429497,18.30137459,0.62755752,0.00000000,-21.13232159,-2.46165398,-5.00000214
9.32000000,1.04593454,-3.84229471,54.57270850,0.30372052,0.95536524,-0.73123775,6.22812285,5.86208397,0.00000000,-26.34347662,3.54784359,18.09882553,0.83899851,0.00000000,-20.61770152,-2.65541638,-5.00000214
9.32500000,1.25418666,-3.83252821,54.81057969,0.30582365,0.95613440,-0.73201499,6.66355160,6.05496583,0.00000000,-27.49677274,3.08291155,17.68914366,0.60752114,0.00000000,-20.31225465,-2.61541994,-5.00000214
9.33000000,1.30370666,-3.83494522,54.98986263,0.30783943,0.95669675,-0.73279801,7.33445743,6.08659091,0.00000000,-28.87718487,2.35149823,17.39890056,0.53394682,0.00000000,-20.00400187,-2.60744375,-5.00000214
9.33500000,1.42666737,-3.83085700,55.19159143,0.30983423,0.95735422,-0.73324052,7.95568912,6.19724904,0.00000000,-30.18191868,1.73186689,17.06872398,0.37876288,0.00000000,-19.68875965,-2.58408633,-5.00000214
9.34000000,1.43126750,-3.82418658,55.32832907,0.31184394,0.95774310,-0.73404218,8.69239472,6.16424195,0.00000000,-31.65743967,1.25619540,16.77806040,0.31755665,0.00000000,-19.35639026,-2.61943332,-5.00000214
9.34500000,1.65309403,-3.79926207,55.59959076,0.31383634,0.95853288,-0.73454640,9.18592358,6.38666291,0.00000000,-32.84583360,0.79111286,16.44139872,0.07559834,0.00000000,-19.18476467,-2.60789820,-5.00000214
9.35000000,1.14150813,-3.80765183,55.74642380,0.31516714,0.95846581,-0.73498154,10.46783720,5.82413517,0.00000000,-34.68769683,0.13064700,16.47579159,0.47960276,0.00000000,-18.72427173,-2.92601728,-5.00000214
9.35500000,0.95456167,-3.80197736,55.83793190,0.31698204,0.95883002,-0.73550499,11.40779510,5.57745237,0.00000000,-36.30306631,0.05795203,16.26807118,0.57489493,0.00000000,-18.28382480,-3.08941503,-5.00000214
9.36000000,0.87154872,-3.79522795,55.93861752,0.31877020,0.95891113,-0.73568689,12.31284187,5.44500056,0.00000000,-37.94664665,0.12431359,16.11378410,0.56129016,0.00000000,-18.01639497,-3.17125341,-5.00000214
9.36500000,0.67277831,-3.77880680,56.05241458,0.32069666,0.95896067,-0.73626435,13.19973636,5.17406233,0.00000000,-39.45865153,0.27281909,16.03374799,0.67314563,0.00000000,-17.84308167,-3.20612219,-5.00000214
9.37000000,0.45642072,-3.76467193,56.14071279,0.32262272,0.95904001,-0.73661927,14.12364224,4.88450867,0.00000000,-40.98889697,0.39303531,15.90012834,0.78292914,0.00000000,-17.52262197,-3.28974498,-5.00000214
9.37500000,0.03817685,-3.74460695,56.18861822,0.32432501,0.95924855,-0.73684593,15.19035544,4.38242776,0.00000000,-42.48903847,0.36339350,15.84737221,1.06044703,0.00000000,-17.10417495,-3.71872372,-5.00000214
9.38000000,-0.28504289,-3.72675752,56.38413229,0.32573261,0.95916757,-0.73726230,16.14021513,3.91819090,0.00000000,-43.92092188,0.40341955,15.78441181,1.32431497,0.00000000,-16.73149518,-3.80634906,-5.00000214
9.38500000,-0.64803381,-3.69720405,56.53394997,0.32724247,0.95911115,-0.73765317,17.09897542,3.40576678,0.00000000,-45.27498442,0.39475642,15.72445306,1.60315085,0.00000000,-16.37818784,-3.92531128,-5.00000214
9.39000000,-0.99423899,-3.66586142,56.65198825,0.32877544,0.95874171,-0.73810606,18.02468968,2.87883009,0.00000000,-46.58956058,0.55009823,15.67013847,1.87605353,0.00000000,-16.07235434,-4.06438046,-5.00000214
9.39500000,-1.27011312,-3.63257823,56.79019769,0.33037784,0.95862596,-0.73857020,18.84205463,2.40465720,0.00000000,-47.72308454,0.55353082,15.57312828,2.09034765,0.00000000,-15.77556092,-4.17278706,-5.00000214
9.40000000,-1.21100329,-3.57228687,56.94352313,0.33214522,0.95892652,-0.73937818,19.23428977,2.18263678,0.00000000,-48.46730771,0.43399291,15.33069171,2.01900672,0.00000000,-15.68030221,-4.15691779,-5.00000214
9.40500000,-2.01996079,-3.52164793,57.09300541,0.33324090,0.95822909,-0.73978658,20.47418459,1.09596490,0.00000000,-49.75662321,0.65687723,15.48881988,2.76003048,0.00000000,-15.23384979,-4.42623121,-5.00000214
9.41000000,-2.20936302,-3.46096325,57.31911361,0.33444749,0.95842408,-0.74045660,21.05794554,0.58925255,0.00000000,-50.44350421,0.54657637,15.30640657,2.94911132,0.00000000,-14.90968177,-4.48164752,-5.00000214
9.41500000,-2.66215787,-3.39150262,57.54938556,0.33548276,0.95820853,-0.74123345,21.82571382,-0.21290088,0.00000000,-51.20041950,0.47486297,15.29895680,3.41508077,0.00000000,-14.61646873,-4.65748393,-5.00000214
9.42000000,-2.80888613,-3.32507763,57.79977565,0.33688578,0.95844275,-0.74189750,22.27208093,-0.69173612,0.00000000,-51.63841067,0.24783238,15.08996334,3.55175463,0.00000000,-14.29349592,-4.93174401,-5.00000214
9.42500000,-2.90695734,-3.25615204,58.00956922,0.33830567,0.95842867,-0.74259941,22.68799630,-1.16176728,0.00000000,-52.09473307,0.53052026,14.90057944,3.64885879,0.00000000,-14.11495298,-4.94837092,-5.00000214
9.43000000,-3.00210649,-3.22130348,58.28151042,0.33953856,0.95852677,-0.74343691,23.07524029,-1.60063371,0.00000000,-52.36734041,0.30284248,14.73950658,3.75851624,0.00000000,-13.90305559,-4.96974524,-5.00000214
9.43500000,-3.12629979,-3.13120200,58.53976028,0.34088522,0.95872558,-0.74421848,23.39117158,-2.12300972,0.00000000,-52.52699070,0.39555860,14.55953125,3.91832122,0.00000000,-13.72865139,-4.98664162,-5.00000214
9.44000000,-3.07164625,-3.13964246,58.94156463,0.34222556,0.95894531,-0.74490486,23.57828456,-2.37117937,0.00000000,-52.48488851,0.36068390,14.45857545,3.84072647,0.00000000,-13.71272395,-5.01893494,-5.00000214
9.44500000,-3.04274395,-3.14288973,59.23119086,0.34380223,0.95920916,-0.74576020,23.76460716,-2.67596705,0.00000000,-52.36849503,0.32721916,14.34719232,3.80468206,0.00000000,-13.69291349,-4.99134495,-5.00000214
9.45000000,-3.06010778,-3.13110192,59.61419204,0.34487884,0.95933945,-0.74646583,23.95214663,-3.06631262,0.00000000,-52.17674145,0.28659213,14.27321831,3.82231256,0.00000000,-13.64926507,-4.98051855,-5.00000214
9.45500000,-3.14245705,-3.13777634,60.07597656,0.34592332,0.95955536,-0.74726736,24.14304530,-3.50290644,0.00000000,-51.84916120,0.28403991,14.21916821,3.90504105,0.00000000,-13.55376214,-5.01971383,-5.00000214
9.46000000,-3.25559595,-3.11635600,60.48503731,0.34721709,0.95981598,-0.74798983,24.31279244,-4.00491385,0.00000000,-51.50017123,0.14181983,14.10574491,4.02777336,0.00000000,-13.37567031,-5.19873104,-5.00000214
9.46500000,-3.26623161,-3.14893977,60.87945649,0.34882848,0.95982643,-0.74870469,24.45710680,-4.33343535,0.00000000,-51.11917137,0.15319280,14.01172130,4.00032969,0.00000000,-13.28157703,-5.16128709,-5.00000214
9.47000000,-3.27697103,-3.16687297,61.30284670,0.35033908,0.95988521,-0.74973884,24.48888502,-4.70340875,0.00000000,-50.54535123,0.19550044,13.92513795,3.99045601,0.00000000,-13.25388584,-5.10262288,-5.00000214
9.47500000,-3.30493451,-3.17142902,61.77643995,0.35157072,0.96006304,-0.75036675,24.48869788,-5.08275693,0.00000000,-49.84788143,0.17896845,13.84188669,4.00188201,0.00000000,-13.17275578,-5.17476821,-5.00000214
9.48000000,-3.37129357,-3.17201401,62.30021054,0.35271956,0.96034004,-0.75114791,24.47802804,-5.53696677,0.00000000,-49.10990530,0.20051427,13.78150786,4.07819018,0.00000000,-13.10624116,-5.18144718,-5.00000214
9.48500000,-3.28190008,-3.12423841,62.78386645,0.35440756,0.96066308,-0.75203565,24.25441094,-5.81303372,0.00000000,-48.25841801,0.25492943,13.54191343,3.98443977,0.00000000,-12.96236253,-5.37118660,-5.00000214
9.49000000,-3.27133717,-3.10927671,63.22547251,0.35597555,0.96083171,-0.75273886,24.15322226,-6.16883922,0.00000000,-47.38350523,0.20059885,13.40809546,3.96172813,0.00000000,-12.88167431,-5.32733785,-5.00000214
9.49500000,-3.37680927,-3.16320974,63.72413885,0.35735082,0.96072934,-0.75356616,24.18326083,-6.63148639,0.00000000,-46.57536155,0.19036844,13.39976663,4.04478489,0.00000000,-12.81510621,-5.21109450,-5.00000214
9.50000000,-3.44943464,-3.19424310,64.20294546,0.35869707,0.96059784,-0.75425119,24.16368252,-7.04143546,0.00000000,-45.66144837,0.22410918,13.39005763,4.07480989,0.00000000,-12.80554673,-5.18442986,-5.00000214
9.50500000,-3.28917660,-3.14428484,64.70012752,0.36023271,0.96095429,-0.75519914,23.73671367,-7.25324503,0.00000000,-44.42285722,0.26656670,13.18558187,3.92355059,0.00000000,-12.81285450,-5.24628679,-5.00000214
9.51000000,-3.40345263,-3.18630876,65.15166171,0.36173923,0.96066412,-0.75582826,23.76162280,-7.70576323,0.00000000,-43.54061678,0.28287546,13.18278234,3.98666230,0.00000000,-12.75741751,-5.13832710,-5.00000214
9.51500000,-3.28590289,-3.12509964,65.69965851,0.36330653,0.96103970,-0.75661524,23.32684755,-7.94850533,0.00000000,-42.24208786,0.15370674,13.01228199,3.88837027,0.00000000,-12.82342109,-5.02814853,-5.00000214
9.52000000,-3.42993928,-3.19872567,66.18436574,0.36450070,0.96059363,-0.75721136,23.38929007,-8.39375150,0.00000000,-41.24481988,0.24262924,13.06137792,3.97538701,0.00000000,-12.71921426,-4.95100118,-5.00000214
9.52500000,-3.37452841,-3.19300505,66.75746559,0.36576978,0.96078566,-0.75785236,23.04540662,-8.68582051,0.00000000,-39.97326483,0.30163014,12.98809739,3.90671469,0.00000000,-12.71903102,-5.08917900,-5.00000214
9.53000000,-3.50104974,-3.22983643,67.20361030,0.36716105,0.96032183,-0.75861715,23.00176209,-9.12474795,0.00000000,-38.93106741,0.23315006,13.00396690,3.99167197,0.00000000,-12.71132482,-4.93863101,-5.00000214
9.53500000,-3.28022291,-3.17945166,67.63159215,0.36918941,0.96039782,-0.75963116,22.49112520,-9.19064844,0.00000000,-37.54515160,0.08101140,12.78265283,3.73032707,0.00000000,-12.78260420,-4.71448931,-5.00000214
9.54000000,-3.36589588,-3.23167751,68.26180739,0.37007602,0.96034625,-0.76013709,22.32976615,-9.61734396,0.00000000,-36.34318671,-0.11118509,12.86955816,3.79387960,0.00000000,-12.81417262,-4.79948459,-5.00000214
9.54500000,-3.37293273,-3.22025928,68.75767157,0.37162864,0.96026984,-0.76090141,22.06080533,-9.93141585,0.00000000,-35.15794304,-0.19177290,12.82428864,3.78276888,0.00000000,-12.85076436,-4.58844481,-5.00000214
9.55000000,-3.34647433,-3.25562572,69.33135118,0.37307605,0.96006971,-0.76151823,21.80217334,-10.18822945,0.00000000,-33.96946658,-0.24967057,12.86448481,3.68457813,0.00000000,-12.97283729,-4.66830267,-5.00000214
9.55500000,-3.33261536,-3.26565472,69.86609335,0.37462250,0.95991494,-0.76227438,21.50351150,-10.46118608,0.00000000,-32.77545520,-0.21897513,12.86225987,3.63810089,0.00000000,-13.09209274,-4.51378226,-5.00000214
9.56000000,-3.32197038,-3.28196053,70.41693000,0.37613120,0.95980097,-0.76287156,21.21324074,-10.70777817,0.00000000,-31.54695452,-0.41913783,12.86644950,3.58271764,0.00000000,-13.15261337,-4.44880262,-5.00000214
9.56500000,-3.31066737,-3.28645293,70.95964044,0.37761829,0.95945462,-0.76355150,20.93457986,-10.95388835,0.00000000,-30.39767571,-0.50042600,12.98877562,3.52919291,0.00000000,-13.49142977,-4.26088311,-5.00000214
9.57000000,-3.40456337,-3.33668481,71.52083394,0.37921292,0.95908591,-0.76429845,20.73470713,-11.28541899,0.00000000,-29.30783849,-0.47584677,13.06289437,3.56763862,0.00000000,-13.57659689,-4.14981323,-5.00000214
9.57500000,-3.19300934,-3.33246000,72.08312294,0.38107909,0.95918597,-0.76492087,20.22617481,-11.25122988,0.00000000,-27.90007710,-1.08536303,13.04811390,3.28238017,0.00000000,-13.78315322,-4.00322611,-5.00000214
9.58000000,-3.31932702,-3.37408605,72.61157551,0.38256848,0.95871133,-0.76578999,20.08872962,-11.63414410,0.00000000,-27.00702497,-0.93619568,13.11869704,3.36414909,0.00000000,-13.86113801,-3.88299114,-5.00000214
9.58500000,-3.18574918,-3.35916432,73.16207395,0.38430654,0.95867616,-0.76633478,19.66593608,-11.69615101,0.00000000,-25.81313141,-1.11704103,13.16774198,3.16506060,0.00000000,-14.13949637,-3.75178441,-5.00000214
9.59000000,-3.17531376,-3.35326843,73.73748603,0.38591754,0.95837906,-0.76719038,19.31966749,-11.88509359,0.00000000,-24.75202599,-1.23537716,13.21616108,3.09902548,0.00000000,-14.38851194,-3.44613670,-5.00000214
9.59500000,-3.19598329,-3.40133446,74.22353719,0.38744677,0.95814636,-0.76768752,19.13921711,-12.09155522,0.00000000,-23.77678149,-1.61811670,13.32874080,3.07051439,0.00000000,-14.48061349,-3.40108883,-5.00000214
9.60000000,-3.14425833,-3.39959686,74.73370091,0.38937396,0.95797329,-0.76848804,18.83476172,-12.22093504,0.00000000,-22.90119783,-1.45120807,13.38946725,2.92559504,0.00000000,-14.82330005,-3.24191609,-5.00000214
9.60500000,-3.13021661,-3.41941321,75.27903913,0.39093588,0.95771302,-0.76911462,18.56543271,-12.37715229,0.00000000,-21.96015292,-1.79234390,13.51523448,2.85280778,0.00000000,-15.08372141,-3.05267768,-5.00000214
9.61000000,-3.17821215,-3.44308105,75.72693612,0.39267820,0.95737092,-0.76967116,18.43989344,-12.59451318,0.00000000,-21.28157313,-1.69690358,13.59080503,2.82593694,0.00000000,-15.23424369,-3.00740258,-5.00000214
9.61500000,-3.10668686,-3.43950097,76.20719843,0.39445408,0.95719719,-0.77038313,18.15264664,-12.65199386,0.00000000,-20.43083389,-2.11893405,13.66241743,2.68266886,0.00000000,-15.50261898,-2.82268611,-5.00000214
9.62000000,-3.19774114,-3.47543679,76.63303136,0.39614731,0.95686365,-0.77103566,18.05975700,-12.88517696,0.00000000,-19.80924878,-2.10827450,13.75151325,2.70027588,0.00000000,-15.62457017,-2.76240069,-5.00000214
9.62500000,-3.13144988,-3.45147372,77.13241713,0.39785279,0.95671850,-0.77172767,17.76371979,-12.95764605,0.00000000,-19.12287333,-2.11762518,13.82614104,2.57024664,0.00000000,-15.91388684,-2.62841351,-5.00000214
9.63000000,-3.06359115,-3.48365392,77.60421822,0.39985509,0.95669043,-0.77213001,17.56532264,-12.93787035,0.00000000,-18.47295027,-2.10450991,13.93430743,2.39737853,0.00000000,-16.12041598,-2.59639191,-5.00000214
9.63500000,-3.17354146,-3.50238586,77.93911767,0.40156161,0.95640226,-0.77262336,17.55024345,-13.18651560,0.00000000,-18.06326115,-2.18034910,14.03132734,2.42569994,0.00000000,-16.27237608,-2.54405120,-5.00000214
9.64000000,-3.14052134,-3.52700370,78.32648788,0.40347918,0.95622532,-0.77335643,17.37795952,-13.16752274,0.00000000,-17.51832615,-2.07462513,14.08615851,2.29387821,0.00000000,-16.41599592,-2.49832383,-5.00000214
9.64500000,-3.09797401,-3.53721750,78.68042526,0.40537913,0.95605346,-0.77396790,17.24117425,-13.17663691,0.00000000,-17.10368226,-1.98924875,14.11369088,2.15581106,0.00000000,-16.53660320,-2.41917277,-5.00000214
9.65000000,-3.11480881,-3.52809249,78.96838337,0.40747613,0.95579252,-0.77429699,17.24192367,-13.20384031,0.00000000,-16.88714707,-2.05147506,14.10005532,2.06441320,0.00000000,-16.56455790,-2.36136153,-5.00000214
9.65500000,-3.01360222,-3.52006807,79.33786612,0.40937095,0.95580456,-0.77488699,16.96701978,-13.12819286,0.00000000,-16.32658594,-2.32373836,14.14685025,1.86936548,0.00000000,-16.78433959,-2.23314502,-5.00000214
9.66000000,-3.05919448,-3.52974679,79.67434032,0.41123297,0.95563842,-0.77539045,16.89615986,-13.19335741,0.00000000,-16.06879969,-2.29900266,14.18060946,1.82489816,0.00000000,-16.86303651,-2.19905362,-5.00000214
9.66500000,-3.00251676,-3.53385938,79.98278535,0.41336338,0.95548338,-0.77597623,16.75275134,-13.09812717,0.00000000,-15.73324565,-2.41981024,14.22930601,1.65262274,0.00000000,-17.03198389,-2.10753897,-5.00000214
9.67000000,-3.04822795,-3.53030865,80.25043457,0.41528179,0.95532864,-0.77641254,16.75786053,-13.11710087,0.00000000,-15.65287146,-2.44494248,14.22538948,1.59321414,0.00000000,-17.05306256,-2.09097030,-5.00000214
9.67500000,-2.98622800,-3.52849078,80.60617675,0.41721250,0.95525644,-0.77672460,16.58172755,-13.02978169,0.00000000,-15.36347907,-2.59598727,14.34565873,1.43049047,0.00000000,-17.33519371,-2.06992765,-5.00000214
9.68000000,-3.00202676,-3.53459402,80.77135689,0.41958748,0.95501936,-0.77729467,16.60232633,-12.94664052,0.00000000,-15.32799016,-2.65246246,14.27854605,1.31459764,0.00000000,-17.26367899,-2.03134231,-5.00000214
9.68500000,-2.86347940,-3.52252952,81.08712550,0.42170926,0.95508513,-0.77765560,16.39183743,-12.72799898,0.00000000,-15.02890105,-2.97790042,14.28414055,1.05076844,0.00000000,-17.36932488,-1.97771884,-5.00000214
9.69000000,-2.92418679,-3.50819745,81.31323723,0.42388455,0.95491577,-0.77810490,16.40201015,-12.68629667,0.00000000,-15.06252513,-3.05612041,14.26206366,1.00261406,0.00000000,-17.38693460,-1.95564919,-5.00000214
9.69500000,-2.85232351,-3.52699612,81.57917535,0.42591337,0.95488267,-0.77848536,16.31233169,-12.53004734,0.00000000,-14.94381310,-3.46389382,14.36195714,0.80946451,0.00000000,-17.61627765,-1.85464484,-5.00000214
9.70000000,-2.90230759,-3.52866318,81.81188389,0.42809951,0.95480719,-0.77897060,16.29247520,-12.46066600,0.00000000,-14.97009995,-3.51913162,14.33742579,0.73444451,0.00000000,-17.59581808,-1.84297428,-5.00000214
9.70500000,-2.94078251,-3.52355956,82.00220840,0.43024743,0.95477220,-0.77947504,16.26401032,-12.40062171,0.00000000,-15.01527555,-3.60020204,14.31619527,0.65024648,0.00000000,-17.60757868,-1.83519526,-5.00000214
9.71000000,-2.81876590,-3.53264413,82.17496167,0.43244543,0.95473716,-0.77970531,16.19356050,-12.14781050,0.00000000,-14.97593745,-3.96133803,14.37875598,0.38660741,0.00000000,-17.78387314,-1.77126011,-5.00000214
9.71500000,-2.85060338,-3.54569377,82.31456831,0.43480467,0.95470194,-0.78026123,16.16231379,-12.06709543,0.00000000,-15.05102207,-3.97687138,14.32676470,0.28646910,0.00000000,-17.72806048,-1.76156700,-5.00000214
9.72000000,-2.86834321,-3.53159161,82.44896379,0.43706745,0.95457355,-0.78053152,16.15185434,-11.94746195,0.00000000,-15.17386144,-4.01192060,14.27605926,0.17793039,0.00000000,-17.68485676,-1.75355683,-5.00000214
9.72500000,-2.87950309,-3.52275846,82.48557393,0.43956885,0.95454797,-0.78098006,16.16124772,-11.81546847,0.00000000,-15.34272810,-4.00182046,14.19680220,0.01988457,0.00000000,-17.63292874,-1.75336537,-5.00000214
9.73000000,-2.92766996,-3.52692455,82.60579920,0.44187093,0.95463473,-0.78117635,16.13164379,-11.74790528,0.00000000,-15.44400922,-3.96922285,14.15469462,-0.04571631,0.00000000,-17.59432908,-1.74855383,-5.00000214
9.73500000,-2.94710453,-3.51425094,82.62848837,0.44424741,0.95435398,-0.78149730,16.19743490,-11.62722180,0.00000000,-15.77501251,-3.41799921,14.12657887,-0.17876253,0.00000000,-17.61493646,-1.72137056,-5.00000214
9.74000000,-2.93200764,-3.52722469,82.67754820,0.44675477,0.95431819,-0.78174171,16.17694380,-11.44032888,0.00000000,-15.85685877,-3.31080168,14.09058919,-0.34434046,0.00000000,-17.59244735,-1.71234625,-5.00000214
9.74500000,-2.92032544,-3.53561685,82.76121454,0.44898229,0.95417192,-0.78200787,16.13109046,-11.29456019,0.00000000,-15.93532226,-3.05932275,14.13797000,-0.48888170,0.00000000,-17.69159121,-1.72013811,-5.00000214
9.75000000,-2.92806959,-3.55344646,82.82792642,0.45146611,0.95416127,-0.78231403,16.07729960,-11.13662377,0.00000000,-15.94884777,-2.93436502,14.11934689,-0.63491793,0.00000000,-17.68388006,-1.72114751,-5.00000214
9.75500000,-2.91626322,-3.55664529,82.90373121,0.45390723,0.95404013,-0.78238012,16.05730758,-10.96155733,0.00000000,-16.03006160,-2.70493630,14.15972881,-0.79376728,0.00000000,-17.78367677,-1.70536516,-5.00000214
9.76000000,-2.99426294,-3.54626637,82.92175739,0.45621816,0.95393939,-0.78259718,16.03069674,-10.90700260,0.00000000,-16.04672164,-2.70318662,14.14341330,-0.84214430,0.00000000,-17.79525103,-1.70562997,-5.00000214
9.76500000,-2.77896774,-3.58255629,82.94444591,0.45889855,0.95383402,-0.78270103,16.00827737,-10.49781487,0.00000000,-16.11376609,-2.39020121,14.20670861,-1.24284266,0.00000000,-17.94657739,-1.57401203,-5.00000214
9.77000000,-2.70398297,-3.59220388,82.96552819,0.46131769,0.95382945,-0.78306672,15.98463345,-10.28461098,0.00000000,-16.20051525,-2.25503638,14.20232520,-1.46522078,0.00000000,-17.98177285,-1.59680937,-5.00000214
9.77500000,-2.77945774,-3.58428398,82.98803815,0.46376240,0.95392086,-0.78333510,15.95529153,-10.23444001,0.00000000,-16.21904973,-2.25099307,14.18375762,-1.50802598,0.00000000,-18.00300226,-1.59767390,-5.00000214
9.78000000,-2.52907707,-3.60229877,83.15292793,0.46619599,0.95386951,-0.78333224,15.85924817,-9.82601152,0.00000000,-16.24087611,-1.93360290,14.37634463,-1.92147023,0.00000000,-18.35818430,-1.65998631,-5.00000214
9.78500000,-2.41563048,-3.61529688,83.22828466,0.46852142,0.95382952,-0.78352996,15.81027775,-9.57603996,0.00000000,-16.27711076,-1.75829040,14.44509957,-2.17744546,0.00000000,-18.50616554,-1.59619491,-5.00000214
9.79000000,-2.16845426,-3.61818838,83.27383788,0.47090934,0.95370375,-0.78393024,15.68478192,-9.19154603,0.00000000,-16.24185610,-1.68340070,14.56452748,-2.56943172,0.00000000,-18.85439201,-1.32982697,-5.00000214
9.79500000,-1.97522513,-3.60573418,83.29765885,0.47341988,0.95388073,-0.78377189,15.64240140,-8.85445402,0.00000000,-16.30961288,-1.54205378,14.63481247,-2.92371567,0.00000000,-19.02375571,-1.43954134,-5.00000214
9.80000000,-1.81815831,-3.61321983,83.43020266,0.47566873,0.95377505,-0.78449687,15.44180147,-8.58567308,0.00000000,-16.18734934,-1.36607518,14.72449445,-3.20412657,0.00000000,-19.28209049,-1.39531356,-5.00000214
9.80500000,-1.50193451,-3.62374729,83.54307696,0.47801755,0.95391192,-0.78419984,15.31481767,-8.12440891,0.00000000,-16.08666915,-1.46714923,14.94047850,-3.66997075,0.00000000,-19.68931437,-1.27993751,-5.00000214
9.81000000,-1.40612727,-3.62145828,83.60950769,0.48027579,0.95372193,-0.78493680,15.17926958,-7.92942960,0.00000000,-16.08467635,-1.15161942,14.97360075,-3.88511635,0.00000000,-19.85990222,-1.26534926,-5.00000214
9.81500000,-1.10446441,-3.62956172,83.68034299,0.48267022,0.95381531,-0.78470304,15.06874866,-7.45784090,0.00000000,-15.97769503,-1.32704891,15.25887791,-4.33987032,0.00000000,-20.41008545,-1.22316841,-5.00000214
9.82000000,-0.93659434,-3.61942675,83.80457122,0.48493243,0.95385253,-0.78497538,14.90774220,-7.16573207,0.00000000,-15.89353943,-1.28424399,15.36003276,-4.62569514,0.00000000,-20.69553211,-1.21197142,-5.00000214
9.82500000,-0.71280025,-3.62261015,83.83451273,0.48722491,0.95373607,-0.78528262,14.79844160,-6.79635205,0.00000000,-15.83986365,-1.21561024,15.45046206,-4.98518821,0.00000000,-20.91213315,-1.22655685,-5.00000214
9.83000000,-0.44484348,-3.62836932,83.95474992,0.48936055,0.95358815,-0.78549186,14.62529834,-6.39860633,0.00000000,-15.69530477,-1.20849840,15.70948091,-5.37109888,0.00000000,-21.45843175,-1.04350865,-5.00000214
9.83500000,-0.51338969,-3.61685206,83.96924024,0.49154305,0.95365864,-0.78572595,14.59209210,-6.35485028,0.00000000,-15.71150027,-1.20650360,15.69543406,-5.38226783,0.00000000,-21.47517439,-1.04757899,-5.00000214
9.84000000,-0.11448482,-3.61848437,84.10829296,0.49371577,0.95358195,-0.78605544,14.36628147,-5.79790390,0.00000000,-15.55063049,-1.01159281,15.94812278,-5.90361186,0.00000000,-22.00320185,-1.07839100,-5.00000214
9.84500000,0.05633338,-3.62902536,84.26122925,0.49589051,0.95365744,-0.78624187,14.21552629,-5.47888429,0.00000000,-15.39462430,-1.06648428,16.14287228,-6.17480005,0.00000000,-22.35624205,-1.18812864,-5.00000214
9.85000000,0.13506627,-3.61165629,84.35297291,0.49791836,0.95368435,-0.78646317,14.10665871,-5.29266117,0.00000000,-15.37170677,-0.89660642,16.36174300,-6.32661283,0.00000000,-22.81671724,-1.27040405,-5.00000214
9.85500000,0.42202535,-3.63590142,84.47703642,0.49999871,0.95368840,-0.78681241,13.94559731,-4.85320727,0.00000000,-15.20421208,-0.88289157,16.60850442,-6.69858063,0.00000000,-23.31169668,-1.16232186,-5.00000214
9.86000000,0.58167165,-3.62523656,84.62545451,0.50189584,0.95373445,-0.78717065,13.77650001,-4.58660349,0.00000000,-15.09347116,-0.75718317,16.80432613,-6.93167105,0.00000000,-23.78939926,-1.29796239,-5.00000214
9.86500000,0.74698844,-3.61468379,84.72919256,0.50390120,0.95376241,-0.78742123,13.64920188,-4.29588326,0.00000000,-15.02177197,-0.62895809,17.04982493,-7.14612832,0.00000000,-24.34889337,-1.24412108,-5.00000214
9.87000000,0.80138076,-3.58550322,84.90500142,0.50568434,0.95373603,-0.78772459,13.51084091,-4.13776362,0.00000000,-14.97266372,-0.59648474,17.21900785,-7.21732554,0.00000000,-24.71335712,-1.34709349,-5.00000214
9.87500000,0.98184987,-3.59965629,85.08952019,0.50754160,0.95386922,-0.78801947,13.32554738,-3.84395979,0.00000000,-14.76812466,-0.49276051,17.49266715,-7.42425714,0.00000000,-25.22621514,-1.47981155,-5.00000214
9.88000000,1.25084575,-3.66350427,85.35800242,0.51009683,0.95385439,-0.78729453,13.33837771,-3.36864651,0.00000000,-14.72975929,-0.76246497,17.78811286,-7.76169921,0.00000000,-25.52265387,-1.67061954,-5.00000214
9.88500000,1.48676887,-3.68757086,85.63427067,0.51242493,0.95383210,-0.78658477,13.28392496,-2.98316008,0.00000000,-14.69035139,-0.61850158,18.06777228,-8.03985849,0.00000000,-25.81144264,-1.80306590,-5.00000214
9.89000000,1.71956254,-3.71184280,85.88689186,0.51486532,0.95370414,-0.78578992,13.29275856,-2.57617143,0.00000000,-14.70895258,-0.59698793,18.42603079,-8.31532663,0.00000000,-26.28039057,-1.91761250,-5.00000214
9.89500000,1.97355994,-3.73606560,86.23992403,0.51705812,0.95362888,-0.78516602,13.19609512,-2.16393128,0.00000000,-14.56935563,-0.71173800,18.72549884,-8.58694106,0.00000000,-26.65073070,-1.82134457,-5.00000214
9.90000000,2.10144206,-3.75799049,86.51384297,0.51936542,0.95349289,-0.78448159,13.20602616,-1.86984773,0.00000000,-14.56864336,-0.63576831,19.03360687,-8.71972488,0.00000000,-27.00703108,-1.94888421,-5.00000214
9.90500000,2.27296473,-3.79318756,86.80356640,0.52163865,0.95338854,-0.78339469,13.27578138,-1.54610955,0.00000000,-14.61128141,-0.64725208,19.37715947,-8.89621002,0.00000000,-27.36836580,-2.11726732,-5.00000214
9.91000000,2.52033581,-3.80940421,87.11873720,0.52398133,0.95334933,-0.78259279,13.25599266,-1.13038442,0.00000000,-14.58344018,-0.67078443,19.78821012,-9.14501964,0.00000000,-27.85247871,-2.33183275,-5.00000214
9.91500000,2.30843784,-3.76091431,87.23435295,0.52347764,0.95383195,-0.78515237,12.83871783,-1.43197402,0.00000000,-14.19174722,-0.67592058,19.99764095,-8.72025944,0.00000000,-28.68148474,-2.27582670,-5.00000214
9.92000000,2.23424079,-3.69503727,87.37269422,0.52279653,0.95426294,-0.78771391,12.35009641,-1.60641869,0.00000000,-13.75904458,-0.62945110,20.25165973,-8.43235382,0.00000000,-29.67463168,-2.08303105,-5.00000214
9.92500000,2.06796402,-3.61029955,87.51742168,0.52199437,0.95475584,-0.79014346,11.87621067,-1.88352537,0.00000000,-13.34326870,-0.61110709,20.53746374,-8.06785596,0.00000000,-30.63888071,-2.12544955,-5.00000214
9.93000000,2.07189439,-3.60647587,87.79929352,0.52335564,0.95504339,-0.79036429,11.73167212,-1.79613181,0.00000000,-13.19190811,-0.59376334,20.75574776,-7.97124144,0.00000000,-30.97024563,-2.23697362,-5.00000214
9.93500000,2.28390669,-3.61296840,88.07608530,0.52461638,0.95524842,-0.79050134,11.55016300,-1.50144536,0.00000000,-12.95822831,-0.65648829,21.15982538,-8.12321629,0.00000000,-31.63025678,-2.28357084,-5.00000214
9.94000000,2.46550953,-3.61362278,88.30358382,0.52595433,0.95540471,-0.79067738,11.39470788,-1.21749763,0.00000000,-12.74798738,-0.80182852,21.43666747,-8.23353193,0.00000000,-32.08165252,-2.21346691,-5.00000214
9.94500000,2.45882873,-3.61668959,88.60308134,0.52670315,0.95559492,-0.79087181,11.24042381,-1.19709250,0.00000000,-12.55467273,-0.78241610,21.67979495,-8.05713254,0.00000000,-32.45151202,-2.15910884,-5.00000214
9.95000000,2.56382684,-3.62161194,88.77878511,0.52802907,0.95574906,-0.79108790,11.10377300,-0.99634404,0.00000000,-12.38306919,-0.81208704,21.85834255,-8.07563866,0.00000000,-32.75857369,-2.07635042,-5.00000214
9.95500000,2.53705874,-3.62057506,88.96317636,0.52900284,0.95595024,-0.79116600,11.00260662,-0.96783000,0.00000000,-12.24695206,-0.85670353,22.04567521,-7.87287021,0.00000000,-33.06703154,-2.04173662,-5.00000214
9.96000000,2.51623451,-3.63573576,89.12192388,0.52995723,0.95619454,-0.79129240,10.90091255,-0.93218790,0.00000000,-12.08273232,-0.92293678,22.20185191,-7.67713395,0.00000000,-33.28747001,-1.93409693,-5.00000214
9.96500000,2.47050703,-3.63062251,89.26228711,0.53076285,0.95639342,-0.79121012,10.82545289,-0.92316136,0.00000000,-11.95427789,-1.08635811,22.36603306,-7.41022517,0.00000000,-33.60499263,-1.76502824,-5.00000214
9.97000000,2.50005701,-3.63754593,89.40510241,0.53159582,0.95649924,-0.79137826,10.71671798,-0.85409181,0.00000000,-11.81139178,-1.01877421,22.51110812,-7.23986579,0.00000000,-33.79441664,-1.62568438,-5.00000214
9.97500000,2.43084639,-3.63793880,89.55875820,0.53244005,0.95673287,-0.79161270,10.61976094,-0.87201875,0.00000000,-11.70132658,-1.04969418,22.64311400,-6.95291438,0.00000000,-34.02766184,-1.50882230,-5.00000214
9.98000000,2.35072145,-3.64507866,89.73239298,0.53282608,0.95694218,-0.79162063,10.52771950,-0.94710302,0.00000000,-11.55215929,-1.08944978,22.94479501,-6.66769706,0.00000000,-34.46959767,-1.38388533,-5.00000214
9.98500000,2.35503274,-3.67360711,89.75536747,0.53389408,0.95715125,-0.79183667,10.47587603,-0.87075655,0.00000000,-11.43240280,-1.15700990,22.91394374,-6.43639770,0.00000000,-34.37436222,-1.09130858,-5.00000214
9.99000000,2.32012346,-3.67120706,89.86051727,0.53453932,0.95742322,-0.79202539,10.38952007,-0.88681049,0.00000000,-11.34202653,-1.16488289,22.99428588,-6.17088858,0.00000000,-34.47620576,-0.94942440,-5.00000214
9.99500000,2.35566206,-3.65768224,89.83361545,0.53515659,0.95743386,-0.79193705,10.38844667,-0.80326148,0.00000000,-11.33768322,-1.16496088,23.03705882,-5.98254908,0.00000000,-34.46317404,-0.94333519,-5.00000214
10.00000000,2.25196894,-3.67684965,89.97496306,0.53581337,0.95773409,-0.79243867,10.23442198,-0.88757265,0.00000000,-11.12922056,-1.20095232,23.11499595,-5.63534420,0.00000000,-34.56633870,-0.58096887,-5.00000214
10.00500000,2.19103116,-3.66462042,89.98378660,0.53596888,0.95776133,-0.79249003,10.20324086,-0.95217568,0.00000000,-11.10124295,-1.20035120,23.31374505,-5.36461216,0.00000000,-34.83711821,-0.53446581,-5.00000214
10.01000000,2.22752399,-3.67060154,89.96729430,0.53670578,0.95788608,-0.79278362,10.18759608,-0.86489212,0.00000000,-11.10279674,-1.19824552,23.33033630,-5.17732198,0.00000000,-34.83229005,-0.52897244,-5.00000214
10.01500000,2.07724767,-3.69116451,90.10009814,0.53708141,0.95812261,-0.79325413,10.02814259,-1.01484821,0.00000000,-10.84759386,-1.17072481,23.38466903,-4.78212616,0.00000000,-34.82338146,-0.16508379,-5.00000214
10.02000000,2.07960433,-3.71506805,90.04172383,0.53791149,0.95825231,-0.79358161,10.01596951,-0.95266926,0.00000000,-10.80715329,-1.15166414,23.26426388,-4.53857341,0.00000000,-34.45861409,-0.06925021,-5.00000214
10.02500000,2.10569201,-3.71408831,90.00974597,0.53847614,0.95834574,-0.79396573,9.98313799,-0.89043504,0.00000000,-10.81515711,-1.15169357,23.29993638,-4.39543047,0.00000000,-34.43608360,-0.06238848,-5.00000214
10.03000000,2.00163220,-3.69930732,90.02750681,0.53901589,0.95857205,-0.79439693,9.82480431,-0.96615769,0.00000000,-10.59071496,-1.16140625,23.20792277,-4.08409908,0.00000000,-34.21444582,0.09743492,-5.00000214
10.03500000,1.89485371,-3.68828113,89.99530780,0.53951420,0.95878875,-0.79480749,9.74447200,-1.04980292,0.00000000,-10.51206454,-1.21248281,23.02227898,-3.76169794,0.00000000,-33.79165445,0.31732858,-5.00000214
10.04000000,1.87561599,-3.69912083,89.97307567,0.54005163,0.95884231,-0.79523274,9.68683595,-1.03187356,0.00000000,-10.42781091,-1.17831306,22.91063518,-3.54451613,0.00000000,-33.46296262,0.42754805,-5.00000214
10.04500000,1.78233608,-3.69420181,90.04264895,0.54026572,0.95909478,-0.79570157,9.56406102,-1.12803550,0.00000000,-10.30052160,-1.22391222,22.93010259,-3.27259863,0.00000000,-33.37028819,0.50418955,-5.00000214
10.05000000,1.74852486,-3.71489590,90.01520420,0.54098486,0.95929327,-0.79618036,9.51019726,-1.11453307,0.00000000,-10.21043871,-1.24455673,22.84757377,-3.07717026,0.00000000,-33.05911606,0.59591671,-5.00000214
10.05500000,1.68109856,-3.69743328,90.09138148,0.54117384,0.95948317,-0.79675924,9.35125103,-1.17958595,0.00000000,-10.04154123,-1.26864408,22.69071865,-2.78890689,0.00000000,-32.72635969,0.83296912,-5.00000214
10.06000000,1.69078644,-3.71691476,90.03108136,0.54166387,0.95939476,-0.79718225,9.34821865,-1.13319434,0.00000000,-10.03846909,-1.25671078,22.51291183,-2.64255248,0.00000000,-32.24270061,0.98256325,-5.00000214
10.06500000,1.69521747,-3.72857455,90.10585260,0.54174142,0.95930392,-0.79758734,9.30088088,-1.12963678,0.00000000,-10.01373689,-1.24997507,22.54423586,-2.50180041,0.00000000,-32.12138395,1.05490234,-5.00000214
10.07000000,1.61700835,-3.71563505,90.06022225,0.54219084,0.95947008,-0.79816439,9.19698185,-1.18477528,0.00000000,-9.89269823,-1.21556041,22.27915813,-2.26918459,0.00000000,-31.55696576,1.32305364,-5.00000214
10.07500000,1.57400422,-3.71403758,90.00561945,0.54303419,0.95982170,-0.79894218,9.11273773,-1.16687961,0.00000000,-9.82581817,-1.20240182,22.02343672,-2.11610859,0.00000000,-30.99517271,1.39034835,-5.00000214
10.08000000,1.52239043,-3.70816535,90.06549792,0.54347005,0.96016482,-0.79961263,8.96604828,-1.19557373,0.00000000,-9.64694370,-1.35533829,21.74694799,-1.90772791,0.00000000,-30.36345886,1.49217931,-5.00000214
10.08500000,1.38158904,-3.71008068,90.05042751,0.54369691,0.96047471,-0.80012812,8.90548636,-1.34390909,0.00000000,-9.60868448,-1.25402389,21.48607728,-1.66652623,0.00000000,-29.73424671,1.38956667,-5.00000214
10.09000000,1.41842482,-3.72066233,90.12708363,0.54417774,0.96061864,-0.80052652,8.83087144,-1.26945393,0.00000000,-9.51064900,-1.26471389,21.36138496,-1.58634736,0.00000000,-29.33471704,1.41949645,-5.00000214
10.09500000,1.48114185,-3.72049853,90.12402218,0.54458952,0.96060959,-0.80107466,8.75716874,-1.17592287,0.00000000,-9.44822208,-1.25005195,21.18234982,-1.54309008,0.00000000,-28.84363731,1.48243870,-5.00000214
10.10000000,1.55028274,-3.73160824,90.07888776,0.54491295,0.96060030,-0.80178431,8.69870675,-1.08238179,0.00000000,-9.40018267,-1.22573261,20.98848166,-1.52370092,0.00000000,-28.37071381,1.53331212,-5.00000214
10.10500000,1.38733263,-3.71967562,90.06120877,0.54519485,0.96076254,-0.80234594,8.62709369,-1.23682190,0.00000000,-9.34058824,-1.27133096,20.67822186,-1.25743882,0.00000000,-27.64597096,1.40153217,-5.00000214
10.11000000,1.48178187,-3.74126826,90.05883851,0.54550273,0.96059588,-0.80285072,8.60722700,-1.10377828,0.00000000,-9.32180289,-1.24648978,20.51507953,-1.26587829,0.00000000,-27.15650771,1.35556128,-5.00000214
10.11500000,1.53544753,-3.73400963,90.12903234,0.54579269,0.96060213,-0.80337678,8.50271281,-1.03362766,0.00000000,-9.23781336,-1.19871670,20.26339245,-1.22088331,0.00000000,-26.54060549,1.13942051,-5.00000214
10.12000000,1.58044376,-3.74587611,90.12860699,0.54615851,0.96059144,-0.80395330,8.44540226,-0.95405499,0.00000000,-9.18508285,-1.15840313,20.03466670,-1.19563170,0.00000000,-25.94563619,0.93839730,-5.00000214
10.12500000,1.33239568,-3.73541145,90.11093164,0.54617785,0.96086930,-0.80465690,8.36566493,-1.23006635,0.00000000,-9.14531450,-1.17348894,19.66060414,-0.83876648,0.00000000,-25.12167541,0.27046567,-5.00000214
10.13000000,1.42143766,-3.73850457,90.08223602,0.54638412,0.96068790,-0.80520024,8.33074421,-1.11511250,0.00000000,-9.13853090,-1.11284965,19.51501984,-0.90063390,0.00000000,-24.73953654,0.07889258,-5.00000214
10.13500000,1.46734491,-3.73775536,90.06626248,0.54662110,0.96067113,-0.80582667,8.27045938,-1.05053548,0.00000000,-9.10782710,-1.07080580,19.27843311,-0.88893103,0.00000000,-24.21724494,-0.16461190,-5.00000214
10.14000000,1.47197811,-3.75060369,90.07856458,0.54674395,0.96065939,-0.80641096,8.22019678,-1.03364116,0.00000000,-9.05806055,-1.09414242,19.03876020,-0.84110486,0.00000000,-23.62020669,-0.59930044,-5.00000214
10.14500000,1.30473619,-3.72744244,90.17164136,0.54670402,0.96077564,-0.80741957,8.04151498,-1.22136561,0.00000000,-8.91865873,-1.05835692,17.58671830,-0.65957957,0.00000000,-21.32010089,-0.81149042,-5.00000214
10.15000000,1.35865256,-3.74727746,90.14323895,0.54701013,0.96067697,-0.80749803,8.10824673,-1.13961005,0.00000000,-9.00252403,-0.99656302,18.61541237,-0.64629838,0.00000000,-22.67384492,-1.99431407,-5.00000214
10.15500000,1.57669723,-3.76598497,90.19762255,0.54729968,0.96045365,-0.80792601,8.07852668,-0.88790920,0.00000000,-8.99081677,-0.91512364,18.40459510,-0.85657858,0.00000000,-22.23340780,-2.22862184,-5.00000214
10.16000000,1.55743217,-3.75345979,90.21887683,0.54763869,0.96062516,-0.80857985,7.96331620,-0.87265428,0.00000000,-8.84527184,-1.14791401,18.00905457,-0.83250653,0.00000000,-21.51470887,-2.85596009,-5.00000214
10.16500000,1.63572336,-3.76508408,90.30757571,0.54758204,0.96051375,-0.80906544,7.92410219,-0.80967579,0.00000000,-8.85632967,-1.05818059,17.93647532,-0.90906882,0.00000000,-21.40703181,-2.84120270,-5.00000214
10.17000000,1.69290442,-3.75878136,90.32979740,0.54792945,0.96057958,-0.80971781,7.85187785,-0.71742256,0.00000000,-8.82437250,-0.93382632,17.55360427,-0.97969994,0.00000000,-20.85098792,-2.67280188,-5.00000214
10.17500000,1.72855804,-3.76611830,90.35566205,0.54805905,0.96043966,-0.81021326,7.84738311,-0.66020947,0.00000000,-8.86004829,-0.87890341,17.31487433,-1.02141035,0.00000000,-20.48792070,-2.61622192,-5.00000214
10.18000000,1.75870877,-3.76832650,90.39241835,0.54811484,0.96040523,-0.81070984,7.82687164,-0.62172841,0.00000000,-8.89165284,-0.82220814,17.10849929,-1.04716586,0.00000000,-20.21967889,-2.60513480,-5.00000214
10.18500000,1.69653916,-3.76801699,90.47498022,0.54816788,0.96047584,-0.81126666,7.76739148,-0.67667782,0.00000000,-8.86906248,-0.79585122,16.87366433,-0.96729297,0.00000000,-19.91663800,-2.54366539,-5.00000214
10.19000000,1.66987168,-3.76646064,90.51581619,0.54815049,0.96060254,-0.81152647,7.72088161,-0.70278641,0.00000000,-8.80958106,-0.76350926,16.70565552,-0.97304072,0.00000000,-19.68718342,-2.51558850,-5.00000214
10.19500000,1.67133719,-3.76757949,90.66176341,0.54833581,0.96067537,-0.81195890,7.69884188,-0.68981577,0.00000000,-8.87777021,-0.77947942,16.69416234,-0.98266845,0.00000000,-19.68752609,-2.44861194,-5.00000214
10.20000000,1.39329761,-3.77296747,90.67744431,0.54793977,0.96103809,-0.81253573,7.69446366,-1.01622963,0.00000000,-8.94352669,-0.76729552,16.09559252,-0.64030874,0.00000000,-18.71411857,-2.75887774,-5.00000214
10.20500000,1.29757913,-3.76929410,90.69059340,0.54790426,0.96105415,-0.81318578,7.68448836,-1.10190143,0.00000000,-8.99542485,-0.74722270,15.79799090,-0.53022187,0.00000000,-18.21029767,-2.76235333,-5.00000214
10.21000000,1.19179970,-3.76638970,90.92399713,0.54744858,0.96121411,-0.81342785,7.58355001,-1.23972248,0.00000000,-8.88315728,-0.69658776,15.58728104,-0.42251739,0.00000000,-17.73073079,-2.67957347,-5.00000214
10.21500000,1.20927691,-3.76853959,91.11583074,0.54715044,0.96124820,-0.81363553,7.59056128,-1.23905060,0.00000000,-8.97666309,-0.71476298,15.55340110,-0.40486976,0.00000000,-17.69487740,-2.68084695,-5.00000214
10.22000000,0.97142920,-3.78598458,90.98816981,0.54725654,0.96144459,-0.81400016,7.78362429,-1.48110043,0.00000000,-9.33976434,-0.57584671,15.30792049,-0.11530574,0.00000000,-17.22541322,-3.36858037,-5.00000214
10.22500000,0.89684625,-3.77832591,91.05616471,0.54698149,0.96164290,-0.81443682,7.79957876,-1.57379838,0.00000000,-9.45847863,-0.52625875,15.24587448,-0.03305321,0.00000000,-17.16977429,-3.48535368,-5.00000214
10.23000000,0.90670085,-3.78042281,91.07743028,0.54714215,0.96175314,-0.81494173,7.85262314,-1.54034267,0.00000000,-9.61312297,-0.47976769,14.99041663,-0.05354711,0.00000000,-16.72891398,-3.51386145,-5.00000214
10.23500000,0.75003598,-3.77902188,91.15180428,0.54687215,0.96194667,-0.81534737,7.90962007,-1.72480506,0.00000000,-9.80494292,-0.41337490,14.84126620,0.12258609,0.00000000,-16.48029275,-3.69668034,-5.00000214
10.24000000,0.56669183,-3.77827661,91.17422271,0.54659265,0.96209225,-0.81579314,8.02602436,-1.93316263,0.00000000,-10.09486776,-0.24240869,14.68243062,0.32047914,0.00000000,-16.22316385,-3.91031081,-5.00000214
10.24500000,0.43055213,-3.77518816,91.28463001,0.54642218,0.96223737,-0.81627684,8.07576217,-2.06710632,0.00000000,-10.24328246,-0.26636088,14.52043418,0.48969127,0.00000000,-15.98529668,-3.97146250,-5.00000214
10.25000000,0.32821116,-3.77445222,91.33680937,0.54634155,0.96238347,-0.81676664,8.16734895,-2.17499392,0.00000000,-10.50027281,-0.14240182,14.31210802,0.56919610,0.00000000,-15.61056361,-3.84626853,-5.00000214
10.25500000,0.16863537,-3.77661427,91.38657186,0.54600677,0.96256389,-0.81710890,8.30447146,-2.37481432,0.00000000,-10.82214562,0.00324432,14.22073970,0.78549052,0.00000000,-15.54511795,-4.17709187,-5.00000214
10.26000000,0.11646716,-3.77093785,91.48701950,0.54589226,0.96257788,-0.81764036,8.38541338,-2.42840355,0.00000000,-11.06263318,0.06413819,13.87006177,0.83976908,0.00000000,-14.88392011,-4.04329614,-5.00000214
10.26500000,-0.08474402,-3.77277173,91.47109088,0.54565809,0.96274957,-0.81798695,8.57014966,-2.66068770,0.00000000,-11.45564733,0.24650222,13.83473300,1.03107329,0.00000000,-14.87017289,-4.18415170,-5.00000214
10.27000000,-0.21103075,-3.77291879,91.53368987,0.54532805,0.96277112,-0.81837775,8.72566517,-2.81404304,0.00000000,-11.80603758,0.32726629,13.71077195,1.19585833,0.00000000,-14.72683418,-4.18793050,-5.00000214
10.27500000,-0.35609345,-3.76833668,91.58297088,0.54514549,0.96264732,-0.81888342,8.90841756,-2.96760851,0.00000000,-12.23226604,0.56816816,13.35308210,1.37841876,0.00000000,-14.12074846,-4.39660101,-5.00000214
10.28000000,-0.53728652,-3.76456274,91.59876597,0.54453942,0.96258083,-0.81925642,9.12381194,-3.21095484,0.00000000,-12.70522884,0.79977022,13.39183521,1.62826786,0.00000000,-14.35155513,-4.43124590,-5.00000214
10.28500000,-0.60899697,-3.76155607,91.65152808,0.54426806,0.96252938,-0.81966977,9.29298741,-3.30352280,0.00000000,-13.07455235,0.76333166,13.32546057,1.70896632,0.00000000,-14.25530872,-4.50205128,-5.00000214
10.29000000,-0.76959866,-3.76121842,91.63286052,0.54417625,0.96236378,-0.82007916,9.57804954,-3.47942591,0.00000000,-13.67271349,1.10334168,13.10120917,1.90195416,0.00000000,-13.89379611,-4.59063219,-5.00000214
10.29500000,-0.89864993,-3.75584978,91.64715249,0.54400891,0.96233804,-0.82050631,9.78578681,-3.62771709,0.00000000,-14.11571839,1.33606501,12.93408196,2.05375809,0.00000000,-13.66982152,-4.63155572,-5.00000214
10.30000000,-0.92325922,-3.73570985,91.67776950,0.54374189,0.96227325,-0.82089353,9.97084303,-3.66856380,0.00000000,-14.52100571,1.30141138,12.82674619,2.07659947,0.00000000,-13.55400486,-4.60634922,-5.00000214
10.30500000,-1.07137348,-3.74369060,91.67883743,0.54361653,0.96214341,-0.82130730,10.26277945,-3.83705155,0.00000000,-15.11875811,1.61197494,12.61028968,2.26862993,0.00000000,-13.17675856,-4.72731760,-5.00000214
10.31000000,-1.17743273,-3.73850147,91.64176038,0.54338417,0.96204002,-0.82157591,10.55657114,-3.96475665,0.00000000,-15.70797905,1.82364802,12.62014943,2.36194167,0.00000000,-13.25607059,-4.73541908,-5.00000214
10.31500000,-1.22757418,-3.73578823,91.70461476,0.54306066,0.96184692,-0.82200678,10.76506322,-4.02908315,0.00000000,-16.11545833,1.74182859,12.55853907,2.44972780,0.00000000,-13.20017967,-4.69034250,-5.00000214
10.32000000,-1.34537889,-3.72717298,91.78211203,0.54291430,0.96171319,-0.82239437,11.01954215,-4.14745904,0.00000000,-16.72871791,2.54252224,12.43478661,2.60464447,0.00000000,-13.02524552,-4.71349866,-5.00000214
10.32500000,-1.54083932,-3.72322008,91.77651353,0.54246828,0.96159593,-0.82256918,11.32325957,-4.41522110,0.00000000,-17.27950735,2.20213432,12.42320768,2.82989147,0.00000000,-13.05394366,-4.74699397,-5.00000214
10.33000000,-1.64030928,-3.71929451,91.75835890,0.54219351,0.96142859,-0.82309119,11.58110073,-4.54178898,0.00000000,-17.80950381,2.30834373,12.31273176,2.95045637,0.00000000,-12.93468952,-4.69100714,-5.00000214
10.33500000,-1.69754687,-3.70699818,91.74599939,0.54203625,0.96125230,-0.82360071,11.82381678,-4.60477704,0.00000000,-18.30087510,2.28931417,12.19291824,3.02019496,0.00000000,-12.80345592,-4.65755633,-5.00000214
10.34000000,-1.84649574,-3.70437737,91.75940428,0.54177703,0.96102642,-0.82386115,12.14262281,-4.78261397,0.00000000,-18.94246876,2.57758336,12.18373403,3.19499840,0.00000000,-12.83841507,-4.64482754,-5.00000214
10.34500000,-1.97367315,-3.69155669,91.72738381,0.54183577,0.96095540,-0.82426717,12.44173446,-4.91196511,0.00000000,-19.55814290,2.69415243,11.98031113,3.33074042,0.00000000,-12.54654754,-4.67560721,-5.00000214
10.35000000,-2.06543248,-3.66199408,91.70866073,0.54149809,0.96069072,-0.82449868,12.73356191,-5.02943118,0.00000000,-20.15665099,2.79698598,11.94315006,3.44383011,0.00000000,-12.55090512,-4.70067587,-5.00000214
10.35500000,-2.25597021,-3.67094269,91.72972963,0.54117382,0.96051289,-0.82468567,13.06206841,-5.25489904,0.00000000,-20.76713471,2.96744397,11.98758033,3.65751391,0.00000000,-12.65508222,-4.70316022,-5.00000214
10.36000000,-2.31911473,-3.65736067,91.75264619,0.54106992,0.96038205,-0.82481404,13.34636958,-5.32579521,0.00000000,-21.31605900,3.04703498,11.94472180,3.72937456,0.00000000,-12.62374642,-4.69757212,-5.00000214
10.36500000,-2.35902524,-3.63951239,91.72402055,0.54119115,0.96018504,-0.82514373,13.62759044,-5.34064157,0.00000000,-21.85477647,3.06736824,11.80907633,3.77635264,0.00000000,-12.43308594,-4.67650311,-5.00000214
10.37000000,-2.48929651,-3.62113974,91.76859738,0.54084074,0.96021876,-0.82526497,13.90388230,-5.49711057,0.00000000,-22.39371651,3.09430318,11.88758308,3.91504055,0.00000000,-12.63495934,-4.70855298,-5.00000214
10.37500000,-2.58456610,-3.61812373,91.69580728,0.54095550,0.96005879,-0.82564059,14.23223822,-5.57636487,0.00000000,-23.00572082,3.25832758,11.69409453,4.01401941,0.00000000,-12.32859554,-4.74720249,-5.00000214
10.38000000,-2.72505540,-3.63730908,91.72552332,0.54040485,0.95988681,-0.82565988,14.56743680,-5.75948635,0.00000000,-23.57299628,3.40985193,11.80186229,4.18733123,0.00000000,-12.51306898,-4.70810454,-5.00000214
10.38500000,-2.78324412,-3.61795577,91.65495685,0.54054798,0.95975292,-0.82597284,14.84100786,-5.79391591,0.00000000,-24.08772235,3.52682564,11.62257963,4.25011579,0.00000000,-12.25869147,-4.71177760,-5.00000214
10.39000000,-2.84002133,-3.60852263,91.68855536,0.54015759,0.95976383,-0.82611246,15.08436222,-5.87566247,0.00000000,-24.56739552,3.65389171,11.69689188,4.32374317,0.00000000,-12.44015032,-4.69768939,-5.00000214
10.39500000,-2.88906771,-3.59205102,91.61747915,0.54036828,0.95975428,-0.82632835,15.34777620,-5.90104948,0.00000000,-25.04938278,3.77418865,11.55677940,4.36450552,0.00000000,-12.23118152,-4.72049197,-5.00000214
10.40000000,-2.95006724,-3.56938552,91.62204823,0.54003329,0.95971218,-0.82666848,15.51157110,-5.95866730,0.00000000,-25.36212259,3.89176178,11.56035324,4.44029051,0.00000000,-12.33067802,-4.69750112,-5.00000214
10.40500000,-2.99392665,-3.61147089,91.51743602,0.54024581,0.95973623,-0.82746287,15.73233825,-5.97753556,0.00000000,-25.71044910,4.10786791,11.28020421,4.50727680,0.00000000,-11.82736726,-4.80390524,-5.00000214
10.41000000,-3.06731318,-3.60179248,91.49488563,0.54011086,0.95980048,-0.82768757,15.92727618,-6.05141269,0.00000000,-26.06214390,4.29097977,11.24683819,4.56328808,0.00000000,-11.80186969,-4.85906109,-5.00000214
10.41500000,-3.06756987,-3.51785123,91.54007672,0.54003592,0.95964480,-0.82735370,16.06461181,-6.04117368,0.00000000,-26.40274374,4.52628398,11.26918520,4.57461120,0.00000000,-12.00160715,-4.70683066,-5.00000214
10.42000000,-3.10708165,-3.51788542,91.44626548,0.54028422,0.95974989,-0.82784173,16.20651074,-6.04415808,0.00000000,-26.61534413,4.69356431,11.09514574,4.58906446,0.00000000,-11.72308761,-4.78014579,-5.00000214
10.42500000,-3.13131326,-3.53461328,91.48753295,0.54002750,0.95975466,-0.82785703,16.36836652,-6.06370387,0.00000000,-26.82886941,4.93331554,11.15315571,4.64670532,0.00000000,-11.82899619,-4.77328506,-5.00000214
10.43000000,-3.10114285,-3.49688599,91.48363348,0.54021143,0.96001259,-0.82849859,16.33203652,-5.99251735,0.00000000,-26.83040875,5.16441317,10.99259753,4.59318882,0.00000000,-11.67942896,-4.79285286,-5.00000214
10.43500000,-3.14811284,-3.51071609,91.48629406,0.54104641,0.95998278,-0.82910445,16.39890852,-5.95570917,0.00000000,-26.94372299,5.62158733,10.81311995,4.59872183,0.00000000,-11.38045405,-4.88802400,-5.00000214
10.44000000,-3.08468941,-3.48113005,91.42153233,0.54059446,0.96012202,-0.82897442,16.46249768,-5.88342388,0.00000000,-26.93155430,5.67396556,10.77166483,4.56172442,0.00000000,-11.34651705,-4.88492305,-5.00000214
10.44500000,-3.13785178,-3.50093795,91.47068762,0.54105604,0.96015767,-0.82959054,16.48454972,-5.87575043,0.00000000,-26.91113259,5.93668640,10.65769929,4.58315471,0.00000000,-11.15614402,-4.93184531,-5.00000214
10.45000000,-3.12890840,-3.50950232,91.47682089,0.54110946,0.96023947,-0.82989676,16.50981221,-5.81751886,0.00000000,-26.84088309,6.10087994,10.61696423,4.57445895,0.00000000,-11.10430595,-4.95901183,-5.00000214
10.45500000,-3.16936508,-3.50839747,91.42826537,0.54111954,0.96038181,-0.83018075,16.54854278,-5.83381420,0.00000000,-26.79359773,6.35852418,10.53151187,4.58164004,0.00000000,-10.94735315,-5.07199772,-5.00000214
10.46000000,-3.15180863,-3.48984828,91.42768789,0.54121435,0.96053523,-0.83047006,16.51908599,-5.76093464,0.00000000,-26.62235896,6.27977406,10.40704909,4.55904723,0.00000000,-10.78349661,-5.12048997,-5.00000214
10.46500000,-3.18169857,-3.50289265,91.40718987,0.54126453,0.96061160,-0.83074256,16.53409501,-5.77272873,0.00000000,-26.52306538,6.58765925,10.34428428,4.59186075,0.00000000,-10.67139549,-5.19853063,-5.00000214
10.47000000,-3.13968954,-3.50611886,91.40499584,0.54130746,0.96062308,-0.83104114,16.49950936,-5.68393587,0.00000000,-26.31443888,6.68344062,10.36725730,4.54547050,0.00000000,-10.75260367,-5.12402112,-5.00000214
10.47500000,-3.05613744,-3.47477706,91.32675859,0.54112868,0.96065136,-0.83171818,16.40565508,-5.57037917,0.00000000,-26.08045284,6.60428524,10.15955853,4.47076513,0.00000000,-10.54433699,-4.98910341,-5.00000214
10.48000000,-3.02841517,-3.50682834,91.31752614,0.54127238,0.96062725,-0.83205955,16.39980242,-5.49692314,0.00000000,-25.89056661,6.78549883,10.15869312,4.42880504,0.00000000,-10.49968864,-5.05462681,-5.00000214
10.48500000,-3.06312941,-3.51610132,91.29518312,0.54143052,0.96069029,-0.83251353,16.34760900,-5.49404885,0.00000000,-25.65432829,6.79976820,10.03414564,4.45398474,0.00000000,-10.32871035,-5.03517497,-5.00000214
10.49000000,-3.10799236,-3.50824010,91.28955823,0.54156297,0.96077424,-0.83289494,16.25452958,-5.49930069,0.00000000,-25.36159099,6.71051375,9.91785309,4.49879816,0.00000000,-10.17626538,-5.10515665,-5.00000214
10.49500000,-3.13057528,-3.51113055,91.28318173,0.54174604,0.96069140,-0.83318169,16.20469115,-5.47992831,0.00000000,-25.13462976,6.61412305,9.87223391,4.51220456,0.00000000,-10.12318271,-5.06316958,-5.00000214
10.50000000,-3.16350854,-3.49365289,91.29400948,0.54190241,0.96071584,-0.83346795,16.08852494,-5.47607635,0.00000000,-24.80630779,6.31843178,9.79161017,4.54014076,0.00000000,-10.04981910,-5.04438235,-5.00000214
10.50500000,-3.12119686,-3.52162492,91.32506546,0.54214131,0.96078835,-0.83386052,15.98830804,-5.38885868,0.00000000,-24.47302813,5.91144993,9.76581831,4.47662794,0.00000000,-9.99158464,-5.07847919,-5.00000214
10.51000000,-3.16200712,-3.52602836,91.38990851,0.54228658,0.96078664,-0.83409754,15.88749111,-5.40075226,0.00000000,-24.17389036,5.64095415,9.78510990,4.52520303,0.00000000,-10.07991100,-5.01892108,-5.00000214
10.51500000,-3.18288677,-3.52581071,91.36853961,0.54256054,0.96078128,-0.83450707,15.75647506,-5.36897813,0.00000000,-23.76262947,4.97238293,9.68942330,4.51447718,0.00000000,-9.94134438,-5.02733522,-5.00000214
10.52000000,-3.18326867,-3.53382273,91.40486584,0.54258331,0.96077977,-0.83486855,15.60837504,-5.33995366,0.00000000,-23.34739190,4.37751716,9.74327757,4.49929422,0.00000000,-10.07247338,-5.04474409,-5.00000214
10.52500000,-3.23476012,-3.53339936,91.33316652,0.54293395,0.96077736,-0.83530741,15.51531221,-5.37003122,0.00000000,-23.10611705,3.98922534,9.64556852,4.51747807,0.00000000,-9.95648752,-4.98676530,-5.00000214
10.53000000,-3.23066415,-3.54376490,91.39288813,0.54322422,0.96073632,-0.83582658,15.33149400,-5.33737887,0.00000000,-22.70659090,3.48807929,9.52009169,4.52177940,0.00000000,-9.77525109,-4.90552002,-5.00000214
10.53500000,-3.27401693,-3.52520706,91.32267152,0.54355144,0.96087902,-0.83603603,15.22162420,-5.34893753,0.00000000,-22.43299873,2.86192800,9.49699155,4.52217339,0.00000000,-9.78134730,-5.05591428,-5.00000214
10.54000000,-3.27941582,-3.55306639,91.31128173,0.54373629,0.96084523,-0.83660923,15.08200387,-5.33520002,0.00000000,-22.13296383,2.65414277,9.52472335,4.49456914,0.00000000,-9.86805753,-4.98839621,-5.00000214
10.54500000,-3.31409288,-3.57745411,91.31525044,0.54416089,0.96070470,-0.83716092,14.95547415,-5.33297314,0.00000000,-21.91059212,2.67342322,9.28113552,4.54071816,0.00000000,-9.44219556,-5.02486968,-5.00000214
10.55000000,-3.35269578,-3.57490677,91.25554864,0.54432967,0.96059734,-0.83750584,14.83229776,-5.36866170,0.00000000,-21.76414894,2.74913859,9.35253128,4.54833606,0.00000000,-9.66147230,-4.92656892,-5.00000214
10.55500000,-3.35532570,-3.58729677,91.25604660,0.54470125,0.96058522,-0.83788033,14.67460777,-5.32605384,0.00000000,-21.52505476,2.72992046,9.32401197,4.52785744,0.00000000,-9.63930067,-4.88909627,-5.00000214
10.56000000,-3.37988251,-3.59174512,91.22175191,0.54493642,0.96055901,-0.83828997,14.51456943,-5.31959427,0.00000000,-21.30283351,2.75073954,9.37018222,4.51589339,0.00000000,-9.74130166,-4.86442471,-5.00000214
10.56500000,-3.38895931,-3.60672262,91.18926266,0.54538143,0.96056206,-0.83866087,14.37617370,-5.29706307,0.00000000,-21.12444598,2.89168708,9.29950175,4.51748051,0.00000000,-9.65295763,-4.83211254,-5.00000214
10.57000000,-3.42605570,-3.60706450,91.14029590,0.54574888,0.96060068,-0.83913253,14.20542912,-5.30220129,0.00000000,-20.88198415,3.02183924,9.19360370,4.53142391,0.00000000,-9.51983691,-4.82110406,-5.00000214
10.57500000,-3.43192612,-3.61023002,91.09416501,0.54612094,0.96068268,-0.83950162,14.03701630,-5.27939740,0.00000000,-20.59113581,2.78596565,9.13675965,4.51738948,0.00000000,-9.46095091,-4.80297640,-5.00000214
10.58000000,-3.45914672,-3.61546918,91.03618432,0.54647156,0.96072498,-0.83990773,13.89295450,-5.29582553,0.00000000,-20.39630862,3.00155101,9.07270165,4.51966557,0.00000000,-9.39237451,-4.80641621,-5.00000214
10.58500000,-3.45814571,-3.62203813,91.01019899,0.54687621,0.96077113,-0.84035730,13.70822323,-5.25912703,0.00000000,-20.08865345,3.12176956,9.00048708,4.49460316,0.00000000,-9.29411611,-4.87399063,-5.00000214
10.59000000,-3.38954828,-3.62718210,90.92118004,0.54741338,0.96076719,-0.84092780,13.53099696,-5.14689371,0.00000000,-19.78786244,3.00557317,8.85902498,4.40600926,0.00000000,-9.08421577,-4.87318193,-5.00000214
10.59500000,-3.36970318,-3.62294361,90.86552212,0.54779807,0.96096379,-0.84127867,13.35617895,-5.09483116,0.00000000,-19.48819871,2.77572166,8.77357907,4.35937883,0.00000000,-8.97536023,-4.83995526,-5.00000214
10.60000000,-3.39232191,-3.61625868,90.78929297,0.54831477,0.96106207,-0.84155358,13.21493643,-5.07337384,0.00000000,-19.26753298,2.94814005,8.69326328,4.35086111,0.00000000,-8.86624466,-5.00001293,-5.00000214
10.60500000,-3.36016867,-3.63138255,90.73279374,0.54860478,0.96134547,-0.84188868,13.04909757,-5.00798119,0.00000000,-18.94490459,2.85022324,8.70288378,4.27757583,0.00000000,-8.92596725,-4.95953708,-5.00000214
10.61000000,-3.32012422,-3.64206431,90.62308798,0.54918216,0.96150231,-0.84215768,12.96088861,-4.92269297,0.00000000,-18.78920567,2.91284171,8.61272855,4.21175283,0.00000000,-8.75248731,-5.03017031,-5.00000214
10.61500000,-3.29045544,-3.64288989,90.59604307,0.54932161,0.96173105,-0.84253140,12.74881911,-4.87242091,0.00000000,-18.41987782,2.78122807,8.60262381,4.16240570,0.00000000,-8.79552080,-5.01364932,-5.00000214
10.62000000,-3.22337564,-3.65493594,90.51871335,0.54995791,0.96196038,-0.84290471,12.60836801,-4.74336699,0.00000000,-18.14693201,2.68805158,8.33596375,4.09229496,0.00000000,-8.33241460,-5.11814303,-5.00000214
10.62500000,-3.17203213,-3.64945502,90.49945640,0.55004283,0.96225267,-0.84304717,12.42570171,-4.68385105,0.00000000,-17.82763217,2.51384547,8.39117713,4.02735026,0.00000000,-8.46751518,-5.14206656,-5.00000214
10.63000000,-3.10579109,-3.66466700,90.32618513,0.55080725,0.96239353,-0.84361167,12.31033106,-4.54810979,0.00000000,-17.58326804,2.42156716,8.08297299,3.91639937,0.00000000,-7.92045295,-5.29714167,-5.00000214
10.63500000,-3.04433920,-3.66033538,90.22406474,0.55116551,0.96260879,-0.84389160,12.15864087,-4.45060104,0.00000000,-17.29763947,2.25852442,8.15401426,3.81294862,0.00000000,-8.10400697,-5.33016605,-5.00000214
10.64000000,-2.95403417,-3.66508004,90.20259889,0.55168834,0.96280061,-0.84413779,11.98233871,-4.31438621,0.00000000,-16.98354711,2.12933415,8.00944324,3.70741928,0.00000000,-7.86709126,-5.32689012,-5.00000214
10.64500000,-2.95688209,-3.66620280,90.05805614,0.55212586,0.96306739,-0.84441911,11.87636606,-4.28581070,0.00000000,-16.78159717,2.02847468,7.89202817,3.66129494,0.00000000,-7.68269459,-5.40682070,-5.00000214
10.65000000,-2.87129866,-3.66893532,90.03885991,0.55260551,0.96322099,-0.84458354,11.71215737,-4.16132086,0.00000000,-16.49927599,1.98986791,7.98609024,3.55086293,0.00000000,-7.88656320,-5.40179165,-5.00000214
10.65500000,-2.84699314,-3.67356049,89.96906888,0.55298393,0.96341210,-0.84474294,11.59958153,-4.10477263,0.00000000,-16.29395271,1.93536764,7.96227171,3.49543318,0.00000000,-7.86833060,-5.41850172,-5.00000214
10.66000000,-2.80972327,-3.67136959,89.88746055,0.55347415,0.96350320,-0.84495193,11.45611357,-4.02630833,0.00000000,-16.02629308,1.83585927,7.81415912,3.42023473,0.00000000,-7.61925128,-5.45946435,-5.00000214
10.66500000,-2.73240883,-3.68279887,89.83603912,0.55395744,0.96372766,-0.84516571,11.30878963,-3.91484898,0.00000000,-15.73913149,1.69306549,7.72196299,3.30552475,0.00000000,-7.44951643,-5.52597673,-5.00000214
10.67000000,-2.67170953,-3.68306296,89.88801373,0.55443063,0.96392621,-0.84539343,11.11380835,-3.82228150,0.00000000,-15.43407845,1.61948780,7.64634259,3.24411632,0.00000000,-7.35219362,-5.56509991,-5.00000214
10.67500000,-2.67764408,-3.68086257,89.82449911,0.55487682,0.96402455,-0.84565988,11.00450276,-3.79581521,0.00000000,-15.25645727,1.59088126,7.54239510,3.22304397,0.00000000,-7.19191487,-5.63720022,-5.00000214
10.68000000,-2.61140310,-3.69038751,89.78447927,0.55535739,0.96422104,-0.84584637,10.85982236,-3.69383569,0.00000000,-14.97179724,1.51461796,7.43354684,3.11393147,0.00000000,-6.97933385,-5.77229429,-5.00000214
10.68500000,-2.55423487,-3.69281327,89.75063025,0.55572560,0.96431778,-0.84593345,10.73896508,-3.61199089,0.00000000,-14.74794493,1.43220442,7.59176004,3.02049149,0.00000000,-7.29981974,-5.69318117,-5.00000214
10.69000000,-2.42752746,-3.65596122,89.72680076,0.55639584,0.96447970,-0.84637176,10.45594629,-3.42835849,0.00000000,-14.33770330,1.45060020,7.40700594,2.86022973,0.00000000,-7.10440557,-5.50280824,-5.00000214
10.69500000,-2.48602193,-3.68653921,89.71511455,0.55663564,0.96460971,-0.84619942,10.48115390,-3.48375163,0.00000000,-14.31952029,1.34019124,7.61394069,2.89647220,0.00000000,-7.43297915,-5.60792188,-5.00000214
10.70000000,-2.48356437,-3.70038847,89.71431824,0.55706862,0.96471859,-0.84628587,10.38440110,-3.45204947,0.00000000,-14.11571669,1.23927628,7.58048889,2.86568434,0.00000000,-7.35296459,-5.63271870,-5.00000214
10.70500000,-2.36285239,-3.68311971,89.69736141,0.55780879,0.96470538,-0.84657491,10.19494205,-3.27413496,0.00000000,-13.83799640,1.26347777,7.41122307,2.71152320,0.00000000,-7.10358039,-5.51101820,-5.00000214
10.71000000,-2.32899395,-3.70436916,89.64161979,0.55829286,0.96474115,-0.84659344,10.18462228,-3.19630947,0.00000000,-13.75684145,1.13903976,7.38964205,2.63669432,0.00000000,-7.01546596,-5.69148918,-5.00000214
10.71500000,-2.37217932,-3.70526955,89.57925620,0.55869255,0.96487617,-0.84656620,10.14281455,-3.22024904,0.00000000,-13.67038519,1.12923847,7.42605592,2.64187029,0.00000000,-7.09397153,-5.69358145,-5.00000214
10.72000000,-2.26287838,-3.70507461,89.61278313,0.55928584,0.96491829,-0.84670573,9.98009671,-3.06325415,0.00000000,-13.39896934,1.00043277,7.34870240,2.50453358,0.00000000,-6.96960040,-5.68212411,-5.00000214
10.72500000,-2.31068856,-3.70858096,89.55846453,0.55957107,0.96506339,-0.84681848,9.92868158,-3.09837530,0.00000000,-13.30833470,1.00479214,7.37166886,2.52181113,0.00000000,-7.04670947,-5.68768375,-5.00000214
10.73000000,-2.25299580,-3.70491475,89.55453347,0.56010829,0.96501476,-0.84687578,9.81840005,-2.99783347,0.00000000,-13.11099504,0.91275961,7.33426937,2.43385274,0.00000000,-6.97752960,-5.69117333,-5.00000214
10.73500000,-2.19444905,-3.70699738,89.53297959,0.56058198,0.96508104,-0.84699213,9.71795784,-2.90185664,0.00000000,-12.92983118,0.84420085,7.31034776,2.34023367,0.00000000,-6.94521262,-5.70190290,-5.00000214
10.74000000,-2.14919492,-3.69758377,89.50035965,0.56117486,0.96506744,-0.84708975,9.63089463,-2.80219705,0.00000000,-12.78165703,0.77028906,7.17858290,2.26573842,0.00000000,-6.73764137,-5.69378462,-5.00000214
10.74500000,-2.18428580,-3.70441771,89.41909728,0.56166580,0.96523825,-0.84703308,9.62726160,-2.80902840,0.00000000,-12.74560976,0.79626736,7.18849856,2.23261342,0.00000000,-6.74035208,-5.72006276,-5.00000214
10.75000000,-2.26302172,-3.70412453,89.41163051,0.56218534,0.96542956,-0.84720950,9.53646558,-2.85477262,0.00000000,-12.58976802,0.71504244,7.04794212,2.29095369,0.00000000,-6.49846192,-5.96434845,-5.00000214
10.75500000,-2.24304204,-3.70262365,89.42915737,0.56245292,0.96545620,-0.84733355,9.44900991,-2.81795524,0.00000000,-12.44676494,0.67321406,6.93572489,2.27591457,0.00000000,-6.34878410,-5.93711520,-5.00000214
10.76000000,-2.24244088,-3.72688686,89.39519019,0.56273719,0.96527355,-0.84816870,9.33008673,-2.80246162,0.00000000,-12.28553617,0.78133114,6.93921769,2.23281445,0.00000000,-6.38596781,-5.89273942,-5.00000214
10.76500000,-2.21342557,-3.72321540,89.35737797,0.56319183,0.96537464,-0.84817607,9.27516686,-2.74220571,0.00000000,-12.18551828,0.76344984,6.88832597,2.16811691,0.00000000,-6.29970630,-5.92591547,-5.00000214
10.77000000,-2.08748066,-3.70097839,89.20586254,0.56280602,0.96519988,-0.84864928,9.17687086,-2.64034814,0.00000000,-12.06276734,0.71024272,6.66860268,2.07377870,0.00000000,-6.03676674,-5.83066759,-5.00000214
10.77500000,-2.08813327,-3.69771991,89.19553116,0.56300953,0.96527779,-0.84870757,9.10830409,-2.63391040,0.00000000,-11.95392617,0.73526556,6.68302961,2.04513294,0.00000000,-6.07274148,-5.84514238,-5.00000214
10.78000000,-2.00427661,-3.70119971,89.16247826,0.56361829,0.96531303,-0.84884370,9.03077802,-2.49752964,0.00000000,-11.80165985,0.57860616,6.55255851,1.92869614,0.00000000,-5.84789210,-5.83929618,-5.00000214
10.78500000,-2.05751537,-3.67852340,89.17295370,0.56482349,0.96561687,-0.84805510,9.05222097,-2.45974204,-0.00000000,-11.78884152,0.57783155,6.57337494,1.90296989,0.00000000,-5.83860931,-5.84192524,-5.00000214
10.79000000,-2.08119281,-3.70948972,89.25182606,0.56520973,0.96580756,-0.84794856,9.01374749,-2.46179751,0.00000000,-11.67052218,0.50218354,6.72904294,1.88611818,0.00000000,-6.04099096,-6.02883535,-5.00000214
10.79500000,-2.03047959,-3.72041410,89.22043394,0.56572044,0.96584843,-0.84807740,8.94536419,-2.37407671,0.00000000,-11.53168013,0.43235913,6.58178542,1.80538138,0.00000000,-5.77150758,-6.08286179,-5.00000214
10.80000000,-2.05863960,-3.70624247,89.11957701,0.56499694,0.96549241,-0.84909306,8.80305491,-2.46676845,0.00000000,-11.40453456,0.56578755,6.35936984,1.89610447,0.00000000,-5.53990040,-5.94064542,-5.00000214
10.80500000,-2.04931102,-3.72000187,89.16790089,0.56576723,0.96556911,-0.84939842,8.69085110,-2.40092364,0.00000000,-11.22078517,0.49079173,6.30628481,1.83783453,0.00000000,-5.43501132,-6.03375229,-5.00000214
10.81000000,-2.07525419,-3.73884893,89.22691150,0.56647001,0.96564776,-0.84976407,8.56948016,-2.37575918,0.00000000,-11.02029430,0.45991330,6.24156286,1.81783301,0.00000000,-5.31117364,-6.12800313,-5.00000214
10.81500000,-2.10427458,-3.74346920,89.23461134,0.56712109,0.96569673,-0.84980099,8.56162564,-2.36062757,0.00000000,-11.01760928,0.46000163,6.24001204,1.80415801,0.00000000,-5.31052259,-6.12920314,-5.00000214
10.82000000,-2.22150281,-3.76412128,89.35893861,0.56728271,0.96550980,-0.85096689,8.29855632,-2.48464869,0.00000000,-10.67207167,0.58401714,6.08513544,1.92336118,0.00000000,-5.11796527,-6.07463048,-5.00000214
10.82500000,-2.28291648,-3.75869541,89.42609820,0.56754122,0.96518555,-0.85233079,8.02002214,-2.53775578,0.00000000,-10.35865208,0.66899920,5.80535247,2.00218943,0.00000000,-4.79122772,-6.06316991,-5.00000214
10.83000000,-2.38925708,-3.76286412,89.49762670,0.56783054,0.96497752,-0.85364448,7.77972410,-2.64436519,0.00000000,-10.11751350,0.85293945,5.58273660,2.09649572,0.00000000,-4.49038226,-6.14182985,-5.00000214
10.83500000,-2.48480978,-3.78082778,89.58556246,0.56808048,0.96464005,-0.85477412,7.60168381,-2.73447104,0.00000000,-9.92801450,0.96993513,5.46453111,2.18445843,0.00000000,-4.35671781,-6.07194510,-5.00000214
10.84000000,-2.58624685,-3.77621208,89.64946063,0.56831758,0.96438353,-0.85601962,7.34531151,-2.83537216,0.00000000,-9.64720713,1.16282268,5.28874826,2.27833248,0.00000000,-4.17868326,-6.00634769,-5.00000214
10.84500000,-2.50397491,-3.77359520,89.72725632,0.56864702,0.96416576,-0.85739554,7.01020826,-2.72998354,0.00000000,-9.22427500,1.23817214,5.04692810,2.17120808,0.00000000,-3.90065236,-5.83670951,-5.00000214
10.85000000,-2.67039006,-3.77988205,89.67169744,0.56890686,0.96414925,-0.85736695,7.04857003,-2.89917207,0.00000000,-9.27507833,1.27508698,5.04004486,2.34496519,0.00000000,-3.88558370,-6.03981010,-5.00000214
10.85500000,-2.13228206,-3.80088706,89.15902449,0.56930458,0.96296940,-0.86319366,6.33849164,-2.30037922,0.00000000,-8.49708439,1.43194996,3.89558572,1.72869427,0.00000000,-2.52658307,-5.70415697,-5.00000214
10.86000000,-1.48322445,-3.81538292,88.60978703,0.56963298,0.96158357,-0.86931118,5.56363261,-1.59757641,0.00000000,-7.66021988,1.60800912,2.66538978,1.01128532,0.00000000,-1.11166948,-5.21296020,-5.00000214
10.86500000,-0.77447756,-3.82436898,88.02915830,0.57001349,0.96016142,-0.87552044,4.75112669,-0.84393993,0.00000000,-6.79723485,1.72799930,1.33369729,0.23250772,0.00000000,0.44034461,-4.82816341,-5.00000214
10.87000000,-0.79821256,-3.82288389,88.01514297,0.57039819,0.96019294,-0.87541182,4.72439422,-0.84066668,0.00000000,-6.72048540,1.63803039,1.36188465,0.21249996,0.00000000,0.42047648,-4.86229420,-5.00000214
10.87500000,-0.78169282,-3.82414685,88.03238636,0.57079962,0.96019519,-0.87528467,4.68527180,-0.79340819,0.00000000,-6.63437528,1.57582524,1.34649163,0.19203715,0.00000000,0.44978248,-4.85668082,-5.00000214
10.88000000,-2.28041997,-3.76926331,89.47321501,0.57137063,0.96519114,-0.85318756,7.34770576,-2.30729622,0.00000000,-9.25754800,0.61837962,5.49735594,1.76417149,0.00000000,-4.25732136,-6.31135588,-5.00000214
10.88500000,-1.88263229,-3.75910891,89.20061859,0.57187456,0.96615557,-0.84912951,7.90435320,-1.83029471,0.00000000,-9.70084138,-0.01179935,6.06654518,1.27853001,0.00000000,-4.88575201,-6.39488305,-5.00000214
10.89000000,-1.82837700,-3.75719691,89.15021560,0.57252533,0.96636144,-0.84841735,7.97371378,-1.71801929,0.00000000,-9.72524765,-0.17752821,6.14156564,1.17453827,0.00000000,-4.96124188,-6.44188246,-5.00000214
10.89500000,-1.87460590,-3.76191861,89.25448374,0.57294995,0.96616587,-0.84916342,7.78304902,-1.74601335,0.00000000,-9.48853820,-0.10334364,6.07648314,1.19898523,0.00000000,-4.90521806,-6.37625724,-5.00000214
10.90000000,-1.80623364,-3.75377844,89.29915114,0.57331635,0.96617491,-0.84921278,7.67962967,-1.64475243,0.00000000,-9.32413343,-0.21860763,6.06991753,1.12447680,0.00000000,-4.91594506,-6.34983185,-5.00000214
10.90500000,-1.80142543,-3.75481508,89.29669151,0.57359735,0.96616026,-0.84918297,7.64579829,-1.61559992,0.00000000,-9.22879453,-0.34167844,6.10171196,1.07476996,0.00000000,-4.94898482,-6.33484471,-5.00000214
10.91000000,-1.75726132,-3.75634084,89.27498720,0.57399340,0.96622067,-0.84919704,7.58242081,-1.55134893,0.00000000,-9.12476833,-0.35077565,6.09383886,1.00335242,0.00000000,-4.93917166,-6.34614890,-5.00000214
10.91500000,-1.73308036,-3.75856019,89.25845172,0.57438464,0.96623592,-0.84917606,7.55120956,-1.50545828,0.00000000,-9.06526503,-0.34688413,6.09530187,0.95327426,0.00000000,-4.94394855,-6.34485338,-5.00000214
10.92000000,-1.70271677,-3.75584859,89.29953366,0.57477564,0.96632056,-0.84914297,7.47954524,-1.44489161,0.00000000,-8.93699323,-0.42250849,6.06013808,0.92206291,0.00000000,-4.89744104,-6.32868680,-5.00000214
10.92500000,-1.60304190,-3.73459796,89.16963712,0.57444848,0.96609469,-0.84932340,7.47146117,-1.37219318,0.00000000,-8.96938078,-0.34375114,5.96658869,0.84244207,0.00000000,-4.82013897,-6.26168497,-5.00000214
10.93000000,-1.64812373,-3.73580302,89.18813873,0.57529726,0.96638537,-0.84925064,7.46698882,-1.36084837,0.00000000,-8.96526282,-0.34148851,5.98083500,0.81306256,0.00000000,-4.82469265,-6.26473463,-5.00000214
10.93500000,-1.68956915,-3.76000473,89.28408888,0.57559849,0.96638123,-0.84919057,7.40926970,-1.38568801,0.00000000,-8.81647143,-0.33487880,6.02152229,0.85651564,0.00000000,-4.83637747,-6.36438338,-5.00000214
10.94000000,-1.92983049,-3.79437505,89.68005773,0.57547342,0.96689726,-0.84748257,7.49147114,-1.65900749,0.00000000,-8.78541250,-0.45946894,6.40353805,1.11249182,0.00000000,-5.14363416,-6.69218512,-5.00000214
10.94500000,-1.96832994,-3.81611905,89.93523127,0.57557468,0.96710018,-0.84606184,7.58613169,-1.69064670,0.00000000,-8.80253718,-0.52483570,6.50697783,1.16363885,0.00000000,-5.05066527,-6.76452649,-5.00000214
10.95000000,-1.98671636,-3.81895617,89.87523105,0.57582847,0.96711843,-0.84620360,7.56187845,-1.69439867,0.00000000,-8.74030520,-0.71161326,6.49430605,1.17217066,0.00000000,-5.03194448,-6.98062046,-5.00000214
10.95500000,-2.04564508,-3.82715798,89.88356751,0.57673894,0.96726148,-0.84650568,7.49120796,-1.69811676,0.00000000,-8.64019733,-0.73077449,6.43241378,1.17108686,0.00000000,-4.93115514,-7.11348162,-5.00000214
10.96000000,-2.09946818,-3.82446068,89.87174866,0.57698359,0.96730903,-0.84667041,7.44893257,-1.74042410,0.00000000,-8.57646485,-0.77467517,6.48590437,1.20436458,0.00000000,-5.06482907,-7.08069490,-5.00000214
10.96500000,-2.11571705,-3.82172067,89.83907985,0.57714839,0.96722309,-0.84676716,7.42606286,-1.74849655,0.00000000,-8.55606012,-0.67354380,6.43961794,1.21781411,0.00000000,-5.00893492,-7.10150646,-5.00000214
10.97000000,-2.04270654,-3.81953583,89.79544232,0.57752536,0.96722543,-0.84688283,7.38332830,-1.64689565,0.00000000,-8.49114095,-0.71279727,6.44206576,1.11253240,0.00000000,-5.04976118,-7.00593360,-5.00000214
10.97500000,-2.04091608,-3.81732927,89.74114215,0.57784191,0.96709218,-0.84705594,7.37260204,-1.61261444,0.00000000,-8.47317161,-0.70653951,6.43171165,1.08840910,0.00000000,-5.06845357,-6.98430038,-5.00000214
10.98000000,-1.90390193,-3.81134909,89.73381541,0.57837752,0.96709532,-0.84717252,7.29668219,-1.43056348,0.00000000,-8.35518931,-0.79156906,6.34947742,0.92105949,0.00000000,-4.94685190,-6.90355156,-5.00000214
10.98500000,-1.90577212,-3.80857612,89.72181084,0.57839928,0.96713928,-0.84743811,7.21104591,-1.43391340,0.00000000,-8.21577062,-0.92664680,6.40382187,0.91401965,0.00000000,-5.09911239,-6.80339891,-5.00000214
10.99000000,-1.84765859,-3.80160879,89.66345545,0.57881673,0.96699727,-0.84778355,7.15872905,-1.34857867,0.00000000,-8.18813140,-0.77461020,6.27786965,0.84286900,0.00000000,-4.94785713,-6.73847311,-5.00000214
10.99500000,-1.84686464,-3.79177161,89.60545743,0.57898489,0.96688805,-0.84789609,7.14762776,-1.33865688,0.00000000,-8.18954344,-0.74406883,6.29091113,0.82737342,0.00000000,-5.00132277,-6.72734395,-5.00000214
11.00000000,-1.86291841,-3.79414828,89.56556725,0.57917227,0.96693192,-0.84803517,7.14177725,-1.34035923,0.00000000,-8.18323532,-0.74009774,6.29049432,0.79673364,0.00000000,-5.02079847,-6.72534577,-5.00000214
11.00500000,-1.79056864,-3.78999945,89.50688440,0.57957716,0.96685418,-0.84834720,7.07953001,-1.23670837,0.00000000,-8.09929852,-0.74868115,6.26996969,0.71031147,0.00000000,-5.06900167,-6.60558573,-5.00000214
11.01000000,-1.76107834,-3.78433698,89.49490978,0.57989520,0.96689992,-0.84848229,7.01391569,-1.18086251,0.00000000,-7.98199054,-0.84673360,6.29335624,0.63741650,0.00000000,-5.13049224,-6.55921006,-5.00000214
11.01500000,-1.71788981,-3.77995821,89.41771710,0.58009969,0.96679352,-0.84882153,6.99125427,-1.12676751,0.00000000,-7.99445776,-0.74681018,6.24808629,0.58297580,0.00000000,-5.12989123,-6.51295379,-5.00000214
11.02000000,-1.77497685,-3.77674529,89.40849486,0.58039008,0.96677766,-0.84883179,6.98265852,-1.16822675,0.00000000,-7.98100529,-0.76263834,6.23153659,0.62769319,0.00000000,-5.10213906,-6.51009267,-5.00000214
11.02500000,-1.62311511,-3.78956576,89.35820603,0.58033293,0.96671072,-0.84935240,6.90160825,-1.01548703,0.00000000,-7.86798527,-0.72171915,6.08150995,0.49467321,0.00000000,-4.90631393,-6.43842602,-5.00000214
11.03000000,-1.71216969,-3.77274507,89.45693048,0.58091560,0.96678842,-0.84890520,6.89508118,-1.07513390,0.00000000,-7.87301090,-0.70462746,6.16401490,0.55284135,0.00000000,-5.01709935,-6.45301677,-5.00000214
11.03500000,-1.77326539,-3.78731528,89.49571636,0.58115241,0.96681884,-0.84873539,6.91185171,-1.12520601,0.00000000,-7.86579893,-0.70403211,6.27329388,0.58039830,0.00000000,-5.14241119,-6.48285783,-5.00000214
11.04000000,-1.61804495,-3.78942375,89.37638041,0.58098521,0.96656874,-0.84950836,6.83559805,-0.97211540,0.00000000,-7.78032624,-0.71813058,6.12532252,0.42505990,0.00000000,-4.98130198,-6.38501465,-5.00000214
11.04500000,-1.76793761,-3.78801363,89.53703125,0.58166651,0.96670600,-0.84878247,6.87234093,-1.08813333,0.00000000,-7.80761980,-0.70443773,6.31100502,0.53990968,0.00000000,-5.19596650,-6.50203237,-5.00000214
11.05000000,-1.68684280,-3.79866502,89.40916925,0.58151574,0.96658554,-0.84931202,6.84881818,-1.01148434,0.00000000,-7.75854701,-0.69236235,6.20564799,0.46279447,0.00000000,-5.08932919,-6.43037332,-5.00000214
11.05500000,-1.57775224,-3.79114185,89.45184543,0.58184411,0.96663132,-0.84937563,6.77237802,-0.87885116,0.00000000,-7.66451003,-0.78694423,6.13316031,0.35315938,0.00000000,-4.98917162,-6.35121967,-5.00000214
11.06000000,-1.56744787,-3.78855119,89.45246668,0.58208005,0.96663042,-0.84931360,6.75941526,-0.85555025,0.00000000,-7.63656399,-0.81631891,6.20226990,0.29567473,0.00000000,-5.08908251,-6.37028187,-5.00000214
11.06500000,-1.66468094,-3.78824442,89.62749550,0.58267419,0.96674908,-0.84875847,6.76394518,-0.92023945,0.00000000,-7.61564879,-0.80887183,6.30641427,0.39856871,0.00000000,-5.19009317,-6.42218441,-5.00000214
11.07000000,-1.66438252,-3.78805249,89.61257419,0.58290949,0.96676776,-0.84876502,6.76882145,-0.90480335,0.00000000,-7.62454329,-0.80307584,6.34010811,0.35702051,0.00000000,-5.23933238,-6.44112803,-5.00000214
11.07500000,-1.61754143,-3.78744135,89.66998256,0.58307031,0.96674194,-0.84877215,6.74531823,-0.85458312,0.00000000,-7.61762704,-0.69199976,6.30787898,0.32820349,0.00000000,-5.18153106,-6.41447990,-5.00000214
11.08000000,-1.63481289,-3.78690925,89.69143117,0.58332013,0.96668002,-0.84879292,6.76583316,-0.84567847,0.00000000,-7.64521192,-0.78862245,6.32473282,0.32937279,0.00000000,-5.21693641,-6.44956040,-5.00000214
11.08500000,-1.65302868,-3.79079789,89.61120300,0.58339098,0.96677036,-0.84886491,6.76859289,-0.86627611,0.00000000,-7.62704996,-0.76617554,6.32669466,0.29860172,0.00000000,-5.22658346,-6.45051835,-5.00000214
11.09000000,-1.65297072,-3.79109515,89.64860142,0.58367861,0.96679455,-0.84886844,6.74896601,-0.84601483,0.00000000,-7.59857907,-0.77061923,6.29089488,0.30298985,0.00000000,-5.16680436,-6.43195480,-5.00000214
11.09500000,-1.68942615,-3.79170719,89.62225743,0.58383991,0.96671830,-0.84887523,6.78998251,-0.87713440,0.00000000,-7.68202113,-0.65071626,6.31713894,0.30982535,0.00000000,-5.19316589,-6.47036479,-5.00000214
11.10000000,-1.64128394,-3.79157166,89.68295469,0.58406681,0.96667205,-0.84889031,6.74629568,-0.80334940,0.00000000,-7.59118946,-0.79756216,6.30071659,0.27635016,0.00000000,-5.16933546,-6.41218654,-5.00000214
11.10500000,-1.62686866,-3.79223144,89.67855808,0.58424563,0.96665123,-0.84890916,6.74541944,-0.78226185,0.00000000,-7.59473062,-0.82298232,6.33211284,0.22788482,0.00000000,-5.21562142,-6.45686908,-5.00000214
11.11000000,-1.57564623,-3.78880483,89.71062896,0.58458517,0.96659848,-0.84896247,6.71097950,-0.70044964,0.00000000,-7.54752946,-0.83047681,6.24809734,0.16549479,0.00000000,-5.05789129,-6.44010987,-5.00000214
11.11500000,-1.60188159,-3.78354552,89.71568446,0.58476075,0.96664697,-0.84896130,6.71231349,-0.70854270,0.00000000,-7.54872576,-0.83361203,6.26822747,0.12048695,0.00000000,-5.05170935,-6.43420247,-5.00000214
11.12000000,-1.58248922,-3.78968895,89.75341399,0.58491583,0.96664115,-0.84895097,6.70333810,-0.68802596,0.00000000,-7.53168787,-0.92240168,6.29518166,0.16765805,0.00000000,-5.17307138,-6.39541300,-5.00000214
11.12500000,-1.60320112,-3.79293654,89.74713964,0.58506191,0.96664132,-0.84887018,6.73649398,-0.70195511,0.00000000,-7.58063936,-0.90718067,6.34135001,0.15506252,0.00000000,-5.21959619,-6.40998567,-5.00000214
11.13000000,-1.58120637,-3.79420667,89.77735720,0.58529461,0.96660736,-0.84897595,6.72846395,-0.66239574,0.00000000,-7.59141805,-0.83920572,6.28959390,0.14258213,0.00000000,-5.14800711,-6.36559209,-5.00000214
11.13500000,-1.59195113,-3.79163399,89.73098511,0.58558090,0.96650775,-0.84904341,6.75850648,-0.64927673,0.00000000,-7.64571824,-0.80578866,6.19301496,0.12679929,0.00000000,-4.95801361,-6.46681844,-5.00000214
11.14000000,-1.67207006,-3.78643691,89.84373459,0.58526270,0.96655150,-0.84933134,6.69536350,-0.75784183,0.00000000,-7.60153797,-0.72922615,6.27942471,0.22469964,0.00000000,-5.14551698,-6.48632237,-5.00000214
11.14500000,-1.68161272,-3.78815158,89.85461257,0.58549750,0.96663805,-0.84915310,6.73337172,-0.75744964,0.00000000,-7.65395913,-0.72263477,6.33320431,0.22362537,0.00000000,-5.22146388,-6.53100568,-5.00000214
11.15000000,-1.63940862,-3.78860765,89.90124480,0.58579540,0.96655696,-0.84939785,6.68333378,-0.68334398,0.00000000,-7.58430483,-0.77169503,6.06687099,0.19798915,0.00000000,-4.74322205,-6.55595367,-5.00000214
11.15500000,-1.58672802,-3.78548622,89.84644193,0.58614178,0.96668596,-0.84917479,6.70392981,-0.59852988,0.00000000,-7.56779090,-0.88449018,6.06837945,0.09575331,0.00000000,-4.71426173,-6.59860003,-5.00000214
11.16000000,-1.58727520,-3.79176921,89.87760880,0.58629361,0.96668178,-0.84923211,6.70562542,-0.60117582,0.00000000,-7.58884910,-0.86791549,6.05845759,0.11163931,0.00000000,-4.70505623,-6.61867173,-5.00000214
11.16500000,-1.58940875,-3.79368827,89.87884185,0.58651351,0.96668858,-0.84908281,6.74106384,-0.58752455,0.00000000,-7.62276849,-0.85315374,6.13346259,0.10138132,0.00000000,-4.82692953,-6.58856489,-5.00000214
11.17000000,-1.71158331,-3.77995219,90.06395861,0.58606046,0.96649235,-0.84976688,6.61957767,-0.74697990,0.00000000,-7.57845731,-0.70806085,6.10732271,0.24903486,0.00000000,-4.84182515,-6.55112319,-5.00000214
11.17500000,-1.70644548,-3.77388650,90.05296121,0.58627866,0.96650230,-0.84986862,6.58537812,-0.72664683,0.00000000,-7.52826570,-0.68852090,6.06999699,0.23022567,0.00000000,-4.80194838,-6.52560381,-5.00000214
11.18000000,-1.73933831,-3.77903736,90.09083286,0.58628223,0.96648922,-0.84983105,6.63518010,-0.76559661,0.00000000,-7.62823337,-0.69347708,6.12234344,0.26600775,0.00000000,-4.86381997,-6.60473165,-5.00000214
11.18500000,-1.70739721,-3.77832492,90.08083252,0.58645639,0.96650844,-0.84946522,6.69749587,-0.72243871,0.00000000,-7.70045809,-0.69439472,6.14796832,0.22320872,0.00000000,-4.87818487,-6.61094178,-5.00000214
11.19000000,-1.64693580,-3.78409130,90.07534012,0.58675482,0.96658395,-0.84945062,6.68855104,-0.63983462,0.00000000,-7.66717719,-0.74922081,6.11090559,0.16026372,0.00000000,-4.82476409,-6.58140257,-5.00000214
11.19500000,-1.65906073,-3.78628104,90.06376138,0.58688895,0.96647711,-0.84947210,6.70486723,-0.63617072,0.00000000,-7.68021104,-0.73372235,6.11505204,0.16240808,0.00000000,-4.83263176,-6.55762381,-5.00000214
11.20000000,-1.68617961,-3.78314092,90.11535632,0.58679691,0.96650502,-0.84955462,6.69477549,-0.67467367,0.00000000,-7.68909569,-0.77827865,6.14936672,0.17917705,0.00000000,-4.88746323,-6.55288526,-5.00000214
11.20500000,-1.72725520,-3.78265776,90.16629376,0.58694697,0.96643369,-0.84978822,6.65944376,-0.70512890,0.00000000,-7.67071320,-0.65436543,6.10237750,0.24293688,0.00000000,-4.82869103,-6.55406557,-5.00000214
11.21000000,-1.70108868,-3.78283676,90.16757458,0.58700060,0.96648956,-0.84979787,6.66992830,-0.67736442,0.00000000,-7.70199223,-0.67238500,6.10840008,0.21292163,0.00000000,-4.84196133,-6.54812744,-5.00000214
11.21500000,-1.70834745,-3.78098475,90.18338813,0.58702358,0.96651350,-0.84976406,6.67439632,-0.68546782,0.00000000,-7.71748287,-0.62781775,6.10509872,0.21321158,0.00000000,-4.82504324,-6.59095599,-5.00000214
11.22000000,-1.68113551,-3.77772007,90.04647305,0.58622459,0.96626036,-0.85023003,6.66502657,-0.71641618,0.00000000,-7.72230050,-0.59814845,6.05549072,0.21561234,0.00000000,-4.82371384,-6.56424530,-5.00000214
11.22500000,-1.71083772,-3.77126144,90.15342237,0.58737442,0.96658979,-0.84966520,6.69182288,-0.66301368,0.00000000,-7.74492837,-0.57810338,6.08292342,0.19974443,0.00000000,-4.80037067,-6.57139565,-5.00000214
11.23000000,-1.71455103,-3.78033465,90.15094193,0.58736878,0.96661839,-0.84998332,6.67893052,-0.67459970,0.00000000,-7.75270027,-0.57800130,6.08666386,0.17475004,0.00000000,-4.80606182,-6.57431269,-5.00000214
11.23500000,-1.67228281,-3.78537866,90.21760872,0.58743395,0.96650627,-0.85020420,6.62822197,-0.62005550,0.00000000,-7.68821350,-0.57115724,6.08295802,0.15887552,0.00000000,-4.83498566,-6.53547452,-5.00000214
11.24000000,-1.67383022,-3.78067463,90.23115174,0.58745484,0.96653214,-0.84978795,6.68732212,-0.61411078,0.00000000,-7.74343740,-0.61062646,6.12822156,0.15945676,0.00000000,-4.87098578,-6.54256038,-5.00000214
11.24500000,-1.67044822,-3.78054938,90.23537175,0.58760036,0.96650891,-0.84987800,6.67167659,-0.59973146,0.00000000,-7.72797625,-0.56384373,6.13276136,0.13801476,0.00000000,-4.88397892,-6.58028711,-5.00000214
11.25000000,-1.66603571,-3.78166181,90.22982690,0.58739114,0.96658998,-0.84993885,6.66409309,-0.61492327,-0.00000000,-7.73266613,-0.56289890,6.13540153,0.12878579,-0.00000000,-4.89166448,-6.58085615,-5.00000214
11.25500000,-1.68694912,-3.78202139,90.24568265,0.58746726,0.96657597,-0.84984108,6.66926526,-0.63377105,0.00000000,-7.73375781,-0.63648217,6.22640609,0.14635477,0.00000000,-5.05328728,-6.56774648,-5.00000214
11.26000000,-1.70069119,-3.77911120,90.24172507,0.58749575,0.96654048,-0.84987794,6.67332547,-0.63561497,0.00000000,-7.73086507,-0.63558348,6.23151826,0.12646378,0.00000000,-5.05374745,-6.56760803,-5.00000214
11.26500000,-1.64858526,-3.77981387,90.24077954,0.58767562,0.96658110,-0.84986402,6.64974158,-0.57600492,0.00000000,-7.69538512,-0.63881952,6.21568270,0.09233566,0.00000000,-5.05190061,-6.51171414,-5.00000214
11.27000000,-1.65815354,-3.78135949,90.23574162,0.58764177,0.96659283,-0.85002754,6.64154570,-0.58654059,0.00000000,-7.70061975,-0.63754874,6.22434074,0.07368263,0.00000000,-5.05280298,-6.51273104,-5.00000214
11.27500000,-1.64080225,-3.77033012,90.21961815,0.58770769,0.96657987,-0.85023136,6.55609442,-0.55576604,0.00000000,-7.56070846,-0.60457994,6.15555239,0.04987004,0.00000000,-4.98417330,-6.45095854,-5.00000214
11.28000000,-1.70757822,-3.78040853,90.27931168,0.58777455,0.96651422,-0.85011378,6.61129509,-0.62067892,0.00000000,-7.64786381,-0.65645248,6.21762925,0.14935660,0.00000000,-5.06321048,-6.52481743,-5.00000214
11.28500000,-1.71204922,-3.78759742,90.22081148,0.58813456,0.96650117,-0.85020627,6.64476889,-0.60463990,0.00000000,-7.72031860,-0.56756977,6.17454593,0.11318730,0.00000000,-4.95522638,-6.61714699,-5.00000214
11.29000000,-1.67704756,-3.78372875,90.26409509,0.58791948,0.96657027,-0.85011279,6.63282728,-0.58162950,0.00000000,-7.68799536,-0.68725479,6.17409346,0.10729085,0.00000000,-4.99254718,-6.55605994,-5.00000214
11.29500000,-1.69318316,-3.78022726,90.19505350,0.58792817,0.96663985,-0.85022876,6.63000412,-0.60075897,0.00000000,-7.69010631,-0.67469334,6.19426592,0.09087710,0.00000000,-5.03254291,-6.56601194,-5.00000214
11.30000000,-3.41353402,-3.81811929,92.13389748,0.59823792,0.96633831,-0.85121841,5.84751717,-1.65893970,0.00000000,-6.89061706,0.12850773,6.78066917,1.19377928,0.00000000,-5.75668970,-7.26953768,-5.00000214
11.30500000,-1.92073114,-3.78505713,90.20601759,0.58743747,0.96666919,-0.85032912,6.69549601,-0.87619422,0.00000000,-7.83489362,-0.39972392,6.16070767,0.37311104,0.00000000,-4.95738807,-6.78260235,-5.00000214
11.31000000,-1.77876224,-3.78324125,90.24128780,0.58763219,0.96664283,-0.85013090,6.66809275,-0.70492377,0.00000000,-7.74048201,-0.60668768,6.24090414,0.19891867,0.00000000,-5.07963275,-6.69470569,-5.00000214
11.31500000,-1.71711619,-3.78351092,90.27306916,0.58766907,0.96664526,-0.85024760,6.61664971,-0.63314395,0.00000000,-7.65523849,-0.71993514,6.25579887,0.12581943,0.00000000,-5.11767966,-6.60735734,-5.00000214
11.32000000,-1.67745888,-3.78169143,90.29354713,0.58778360,0.96665570,-0.85031673,6.58548196,-0.58062728,0.00000000,-7.60729271,-0.77113482,6.16556126,0.11729560,0.00000000,-4.97584249,-6.56506655,-5.00000214
11.32500000,-1.68192232,-3.78257966,90.26938149,0.58772342,0.96670020,-0.85040991,6.57437329,-0.59801230,0.00000000,-7.61154668,-0.76344202,6.17512431,0.08972999,0.00000000,-4.98739490,-6.57020577,-5.00000214
11.33000000,-1.75378703,-3.77303765,90.28823976,0.58768982,0.96659570,-0.85045626,6.53844692,-0.67201331,0.00000000,-7.56070414,-0.72959464,6.12554375,0.19600864,0.00000000,-4.95209302,-6.54908664,-5.00000214
11.33500000,-1.74634471,-3.77495712,90.24848813,0.58769901,0.96662811,-0.85043132,6.57190517,-0.65807435,0.00000000,-7.60439839,-0.71747452,6.18160306,0.16371356,0.00000000,-5.03273434,-6.59137568,-5.00000214
11.34000000,-1.70601324,-3.78312595,90.29611905,0.58771247,0.96656830,-0.85037752,6.56991771,-0.62189123,0.00000000,-7.61506739,-0.65032462,6.25276928,0.13856946,0.00000000,-5.12763379,-6.55685797,-5.00000214
11.34500000,-1.69248583,-3.77169166,90.31678694,0.58776746,0.96652690,-0.85051542,6.48998155,-0.60454410,0.00000000,-7.51126581,-0.59676880,6.15679654,0.14634586,0.00000000,-5.00669272,-6.47928272,-5.00000214
11.35000000,-1.64060680,-3.78005094,90.29994916,0.58793000,0.96648735,-0.85047565,6.54744363,-0.53007708,0.00000000,-7.58972090,-0.69130334,6.16460343,0.05986296,0.00000000,-4.98507647,-6.57377681,-5.00000214
11.35500000,-1.65381598,-3.77770094,90.17641754,0.58811452,0.96648074,-0.85031589,6.60026596,-0.53063417,0.00000000,-7.64768873,-0.67109019,6.03377804,0.08163817,0.00000000,-4.75655309,-6.59534254,-5.00000214
11.36000000,-1.72658828,-3.76695028,90.24045658,0.58772966,0.96653643,-0.85048202,6.55581184,-0.63470689,0.00000000,-7.62366938,-0.66064450,6.16021914,0.17564691,0.00000000,-5.03764376,-6.58175662,-5.00000214
11.36500000,-1.66717385,-3.77605424,90.16651219,0.58792306,0.96653181,-0.85042322,6.57212388,-0.56084226,0.00000000,-7.61368106,-0.64088627,6.03364251,0.11149665,0.00000000,-4.77551780,-6.60851708,-5.00000214
11.37000000,-1.67819801,-3.77639495,90.15444837,0.58804939,0.96658399,-0.85058604,6.56419153,-0.56286846,0.00000000,-7.61642215,-0.64158630,6.04357838,0.08828997,0.00000000,-4.77777260,-6.61026518,-5.00000214
11.37500000,-1.67369562,-3.77579607,90.23255017,0.58676158,0.96633355,-0.85165610,6.39291834,-0.65366509,0.00000000,-7.45168599,-0.57843872,5.93998281,0.20178987,0.00000000,-4.74522103,-6.46394735,-5.00000214
11.38000000,-1.64969167,-3.77418525,90.22268358,0.58695975,0.96632074,-0.85165612,6.38852518,-0.61775521,0.00000000,-7.45123100,-0.57925930,5.97583738,0.14585244,0.00000000,-4.79903204,-6.47091229,-5.00000214
11.38500000,-1.69045731,-3.75890484,90.22903716,0.58788767,0.96668703,-0.85098922,6.41153807,-0.59147418,0.00000000,-7.44135203,-0.57759284,6.00626381,0.11929579,0.00000000,-4.79205944,-6.47676277,-5.00000214
11.39000000,-1.65768969,-3.77741511,90.16005928,0.58696768,0.96644506,-0.85150868,6.40897136,-0.62535702,0.00000000,-7.45133311,-0.56535433,5.98717396,0.14540554,0.00000000,-4.81340696,-6.47753528,-5.00000214
11.39500000,-1.66338195,-3.78202668,90.15773092,0.58711083,0.96631535,-0.85168569,6.40892376,-0.61021402,0.00000000,-7.45153418,-0.56612484,5.98048257,0.14529690,0.00000000,-4.81513565,-6.47781177,-5.00000214
11.40000000,-1.71330506,-3.77089945,90.17237578,0.58826257,0.96666743,-0.85125947,6.42248639,-0.57565836,-0.00000000,-7.44664847,-0.56831516,5.99376037,0.11904022,0.00000000,-4.81000574,-6.47914928,-5.00000214
11.40500000,-1.60197441,-3.77315501,90.21239516,0.58822121,0.96665673,-0.85147072,6.34599222,-0.45464519,0.00000000,-7.32662360,-0.58321178,5.97088793,-0.00575208,0.00000000,-4.76311490,-6.45127543,-5.00000214
11.41000000,-1.65738082,-3.78664246,90.26052859,0.58819160,0.96669409,-0.85114788,6.41004556,-0.52305115,0.00000000,-7.40317106,-0.72315404,6.12578316,0.06402060,0.00000000,-4.98248413,-6.57261725,-5.00000214
11.41500000,-1.64354451,-3.79392154,90.26401770,0.58784607,0.96662896,-0.85135254,6.40400051,-0.53209512,0.00000000,-7.40649599,-0.72148642,6.11959030,0.07352182,0.00000000,-4.98376993,-6.57164314,-5.00000214
11.42000000,-1.71221702,-3.78435784,90.23852964,0.58817264,0.96671513,-0.85115443,6.43778792,-0.57899540,0.00000000,-7.44771327,-0.78892339,6.14608527,0.10759414,0.00000000,-5.02590708,-6.57781699,-5.00000214
11.42500000,-1.63082520,-3.79641203,90.32066382,0.58783910,0.96661250,-0.85144409,6.36017165,-0.51790037,0.00000000,-7.33351039,-0.81384664,6.14497750,0.05732217,0.00000000,-5.02079747,-6.54769366,-5.00000214
11.43000000,-1.64197701,-3.78338963,90.19867080,0.58679941,0.96627939,-0.85209474,6.32011472,-0.61127863,0.00000000,-7.34451622,-0.65342395,5.99640018,0.14673963,0.00000000,-4.88918313,-6.38802690,-5.00000214
11.43500000,-1.63995569,-3.78222019,90.15628354,0.58705763,0.96629375,-0.85220375,6.34384712,-0.59257100,0.00000000,-7.40591586,-0.58460537,6.00275956,0.10388159,0.00000000,-4.90502413,-6.47342299,-5.00000214
11.44000000,-1.61796440,-3.78016953,90.17489587,0.58711211,0.96629242,-0.85235054,6.31865756,-0.55832253,0.00000000,-7.37717243,-0.60204125,5.95771423,0.10613779,0.00000000,-4.84176484,-6.39379024,-5.00000214
11.44500000,-1.60144731,-3.78045509,90.18932315,0.58711448,0.96628496,-0.85238694,6.30508954,-0.53932696,0.00000000,-7.34409781,-0.67171810,5.98473554,0.08876355,0.00000000,-4.90102320,-6.38709500,-5.00000214
11.45000000,-1.57396487,-3.77564471,90.20608674,0.58707788,0.96632736,-0.85235488,6.29803755,-0.51083859,0.00000000,-7.33742180,-0.67874616,6.00021160,0.05410279,0.00000000,-4.93240487,-6.44203921,-5.00000214
11.45500000,-1.53519681,-3.78131539,90.23185966,0.58714949,0.96631069,-0.85255062,6.28124771,-0.46144169,0.00000000,-7.32617087,-0.65053628,5.93238294,0.02859106,0.00000000,-4.82013974,-6.41793582,-5.00000214
11.46000000,-1.54097699,-3.78685226,90.22268874,0.58712508,0.96623563,-0.85284991,6.27510978,-0.46778802,0.00000000,-7.32783741,-0.64966361,5.93001389,0.01237745,0.00000000,-4.82452585,-6.41785537,-5.00000214
11.46500000,-1.56804393,-3.78186092,90.23270351,0.58685930,0.96624291,-0.85285769,6.25671548,-0.51971924,0.00000000,-7.31102849,-0.61433824,5.92085788,0.06778255,0.00000000,-4.82914103,-6.39861048,-5.00000214
11.47000000,-1.57650734,-3.77798194,90.19956154,0.58704879,0.96620379,-0.85304087,6.25205777,-0.51366829,0.00000000,-7.34593579,-0.50098169,5.88402726,0.06391759,0.00000000,-4.78917628,-6.40424644,-5.00000214
11.47500000,-1.50179121,-3.75558619,90.20543068,0.58684239,0.96628355,-0.85324277,6.11345622,-0.45761219,0.00000000,-7.16382893,-0.41149317,5.79114461,-0.00975908,0.00000000,-4.67745452,-6.31378242,-5.00000214
11.48000000,-1.62337660,-3.78286622,90.21742687,0.58692486,0.96616959,-0.85294078,6.28818254,-0.58038648,0.00000000,-7.42066465,-0.37338025,5.95682646,0.11940137,0.00000000,-4.89543879,-6.36520791,-5.00000214
11.48500000,-1.60337001,-3.77924582,90.21456565,0.58699358,0.96616170,-0.85298427,6.28634471,-0.55914847,0.00000000,-7.44715904,-0.30983801,5.90631272,0.09983962,0.00000000,-4.81452450,-6.41472495,-5.00000214
11.49000000,-1.60476937,-3.78178351,90.20877505,0.58687406,0.96621515,-0.85302481,6.28289090,-0.57295598,0.00000000,-7.44819222,-0.30931607,5.90466642,0.08440911,0.00000000,-4.81442504,-6.41396318,-5.00000214
11.49500000,-1.61643064,-3.78509364,90.27455413,0.58809896,0.96649570,-0.85221553,6.36132015,-0.49594918,0.00000000,-7.51334866,-0.29749066,6.05249258,0.02773144,0.00000000,-4.96968531,-6.57075672,-5.00000214
11.50000000,-1.66579687,-3.78681023,90.24758026,0.58819668,0.96656201,-0.85225060,6.36408759,-0.52836663,0.00000000,-7.48427378,-0.47280190,6.01493319,0.05666601,0.00000000,-4.92534489,-6.52688229,-5.00000214
11.50500000,-1.70084292,-3.76136494,90.05885891,0.58774913,0.96656388,-0.85245056,6.35686362,-0.59607319,0.00000000,-7.48544123,-0.47540189,6.05813265,0.01316423,0.00000000,-5.00870504,-6.54964860,-5.00000214
11.51000000,-1.76066843,-3.78347689,90.15131667,0.58800653,0.96663640,-0.85232224,6.41489149,-0.64450606,0.00000000,-7.57257670,-0.49404181,6.17882566,0.05333276,0.00000000,-5.15162182,-6.67269461,-5.00000214
11.51500000,-1.69799635,-3.78384876,90.24219414,0.58789466,0.96645508,-0.85229729,6.40443814,-0.58955017,0.00000000,-7.57507451,-0.45496439,6.08754849,0.11815423,0.00000000,-5.05081476,-6.60533674,-5.00000214
11.52000000,-1.66295443,-3.77504723,90.16396670,0.58795481,0.96643088,-0.85261121,6.37555012,-0.54202716,0.00000000,-7.54832420,-0.44711661,5.94795187,0.06867993,0.00000000,-4.86909485,-6.48300630,-5.00000214
11.52500000,-1.63357015,-3.77348046,90.20727076,0.58817835,0.96657455,-0.85272594,6.29231058,-0.49201729,0.00000000,-7.40831555,-0.44019478,5.90737501,0.01034953,0.00000000,-4.79723142,-6.45082665,-5.00000214
11.53000000,-1.71101564,-3.78718902,90.26420821,0.58793706,0.96662865,-0.85244272,6.35409955,-0.59816200,0.00000000,-7.48830147,-0.47632210,5.99566298,0.12065294,0.00000000,-4.89570599,-6.57217660,-5.00000214
11.53500000,-1.70363031,-3.77697331,90.20281673,0.58801231,0.96653060,-0.85257663,6.35433031,-0.57922524,0.00000000,-7.49404571,-0.47560579,5.97619882,0.11369870,0.00000000,-4.90457486,-6.56913872,-5.00000214
