time,pelvis_tilt,pelvis_list,pelvis_rotation,pelvis_tx,pelvis_ty,pelvis_tz,hip_flexion_r,hip_adduction_r,hip_rotation_r,knee_angle_r,ankle_angle_r,hip_flexion_l,hip_adduction_l,hip_rotation_l,knee_angle_l,ankle_angle_l,lumbar_extension
0.00000000,-3.34426324,0.69312954,87.52270184,0.58515512,0.95343573,-0.67598376,1.86863469,-4.40483576,0.00000000,-3.48564801,1.79760676,0.02537859,2.12824738,0.00000000,0.65468951,-4.70453260,-5.00000214
0.00500000,-3.37189131,0.75246531,87.51605942,0.58521771,0.95356023,-0.67612256,1.83048986,-4.43531077,0.00000000,-3.56850676,1.95130362,-0.13588248,2.16413173,0.00000000,0.83992721,-4.82666373,-5.00000214
0.01000000,-3.31965807,0.73680663,87.52487633,0.58520870,0.95352452,-0.67614729,1.78889452,-4.38065212,0.00000000,-3.44365302,1.73988731,-0.06600746,2.10450087,0.00000000,0.71624784,-4.65588890,-5.00000214
0.01500000,-3.32731705,0.76299220,87.62230783,0.58479550,0.95354014,-0.67593765,1.73173992,-4.41698936,0.00000000,-3.38398525,1.64937293,-0.02169570,2.13665251,0.00000000,0.61953079,-4.60631130,-5.00000214
0.02000000,-3.34824212,0.76020667,87.55485318,0.58507471,0.95348999,-0.67604595,1.82231781,-4.41813931,0.00000000,-3.57067931,1.94147269,-0.11391383,2.13566148,0.00000000,0.80632149,-4.80241045,-5.00000214
0.02500000,-3.32689918,0.72695317,87.51656544,0.58502513,0.95346982,-0.67610806,1.81213215,-4.39629104,0.00000000,-3.45626030,1.77714937,-0.05648833,2.10767684,0.00000000,0.73008244,-4.69735088,-5.00000214
0.03000000,-3.34642392,0.81971331,87.59895109,0.58481511,0.95362721,-0.67583696,1.72908458,-4.43437736,0.00000000,-3.49352813,1.76570744,-0.12596339,2.15406007,0.00000000,0.72233018,-4.69237226,-5.00000214
0.03500000,-3.33113125,0.78418183,87.56136933,0.58483547,0.95364499,-0.67607106,1.72712507,-4.42097218,0.00000000,-3.42617511,1.69968785,-0.11394088,2.15051381,0.00000000,0.72889301,-4.57997617,-5.00000214
0.04000000,-3.31361269,0.72831234,87.58576166,0.58458878,0.95353895,-0.67606968,1.74940687,-4.41893793,0.00000000,-3.34281192,1.56163204,-0.00349359,2.13552592,0.00000000,0.63036823,-4.47708137,-5.00000214
0.04500000,-3.40954003,0.66480190,87.52292908,0.58454284,0.95330733,-0.67588758,2.01410596,-4.52631639,0.00000000,-3.70751423,1.99939142,-0.00655235,2.23768303,0.00000000,0.83111813,-4.76008660,-5.00000214
0.05000000,-3.37623598,0.63423305,87.52297210,0.58453818,0.95329521,-0.67588613,1.99563283,-4.48173872,0.00000000,-3.58450695,1.79859578,0.07921812,2.18620513,0.00000000,0.71014363,-4.61726157,-5.00000214
0.05500000,-3.35349112,0.63320131,87.52901701,0.58458968,0.95332543,-0.67600916,1.96793077,-4.44903345,0.00000000,-3.54953563,1.76240636,0.08076548,2.14190567,0.00000000,0.68172798,-4.61014944,-5.00000214
0.06000000,-3.38169395,0.65443468,87.55253981,0.58466137,0.95333302,-0.67606647,1.94318767,-4.47854111,0.00000000,-3.57983799,1.87341300,-0.00706829,2.19575308,0.00000000,0.80530129,-4.72713199,-5.00000214
0.06500000,-3.34013768,0.69621035,87.55955962,0.58462247,0.95340066,-0.67607471,1.87569718,-4.44077373,0.00000000,-3.54253024,1.83293230,-0.06010755,2.16402820,0.00000000,0.80512939,-4.67567041,-5.00000214
0.07000000,-3.31514115,0.66850677,87.58376726,0.58448697,0.95339678,-0.67617109,1.84983326,-4.42114326,0.00000000,-3.45230430,1.71317887,-0.01001646,2.14913180,0.00000000,0.75117764,-4.55878419,-5.00000214
0.07500000,-3.39505091,0.63633532,87.55120027,0.58435467,0.95325131,-0.67604369,2.03272031,-4.51721557,0.00000000,-3.72348015,2.03289167,-0.01576660,2.23761481,0.00000000,0.88119904,-4.81068903,-5.00000214
0.08000000,-3.34350289,0.59247770,87.56542167,0.58445983,0.95327173,-0.67622254,2.00319368,-4.44520313,0.00000000,-3.58242663,1.82844995,0.05784528,2.16319927,0.00000000,0.78325975,-4.67067659,-5.00000214
0.08500000,-3.38804946,0.63597956,87.54019108,0.58440554,0.95331122,-0.67611715,2.02562447,-4.50140849,0.00000000,-3.71405295,2.03650161,-0.03367996,2.21881765,0.00000000,0.90180399,-4.80772269,-5.00000214
0.09000000,-3.35535565,0.59503047,87.55938432,0.58444546,0.95336661,-0.67617074,1.99891578,-4.46252916,0.00000000,-3.57550719,1.81560342,0.03939144,2.18383318,0.00000000,0.81376300,-4.63087437,-5.00000214
0.09500000,-3.36465962,0.69419093,87.53596924,0.58449177,0.95345863,-0.67629824,1.93120650,-4.47973987,0.00000000,-3.68756195,2.05125125,-0.13708825,2.19739632,0.00000000,0.94689461,-4.80346326,-5.00000214
0.10000000,-3.33667546,0.67153899,87.53981734,0.58444850,0.95343117,-0.67632294,1.92143590,-4.44940709,0.00000000,-3.60270865,1.89347739,-0.06715408,2.16772606,0.00000000,0.84792699,-4.69378203,-5.00000214
0.10500000,-3.33671738,0.64545863,87.60771076,0.58417472,0.95332740,-0.67631738,1.91111140,-4.46277660,0.00000000,-3.53326253,1.72624507,0.03049306,2.17191032,0.00000000,0.73013770,-4.55582365,-5.00000214
0.11000000,-3.39622279,0.02215301,87.66707121,0.58495166,0.95286438,-0.67630140,2.69266770,-4.42430539,0.00000000,-3.78546855,1.92596265,0.74618032,2.13308348,0.00000000,0.69842335,-4.90903334,-5.00000214
0.11500000,-3.41954375,0.58842023,87.52640198,0.58420189,0.95321782,-0.67615882,2.18428363,-4.54792252,0.00000000,-3.93299070,2.19587494,0.07376826,2.25525893,0.00000000,0.78375454,-4.58193748,-5.00000214
0.12000000,-3.41574478,0.54994907,87.54948769,0.58413837,0.95317638,-0.67626523,2.18193303,-4.55047303,0.00000000,-3.86668369,2.13218043,0.10467204,2.27239145,0.00000000,0.77481693,-4.57348603,-5.00000214
0.12500000,-3.35247813,0.35750159,87.69413266,0.58501834,0.95339063,-0.67651875,2.23854690,-4.39024876,0.00000000,-3.66816885,1.95350019,0.34285443,2.12246369,0.00000000,0.70649671,-4.67347470,-5.00000214
0.13000000,-3.39262043,0.65369588,87.56047954,0.58414303,0.95331934,-0.67647650,2.05127119,-4.52542679,0.00000000,-3.86198026,2.12493064,-0.06639719,2.26110690,0.00000000,0.87020887,-4.60520075,-5.00000214
0.13500000,-3.40551344,0.70384120,87.57706277,0.58409926,0.95331101,-0.67655533,1.97939520,-4.53926977,0.00000000,-3.83463091,2.12951636,-0.12466742,2.26408303,0.00000000,0.88077107,-4.75010727,-5.00000214
0.14000000,-3.39907134,0.13326330,87.73075437,0.58473925,0.95297490,-0.67659962,2.52502976,-4.44095967,0.00000000,-3.75468017,1.91604488,0.61800769,2.16786312,0.00000000,0.66678927,-4.86562849,-5.00000214
0.14500000,-3.45323246,0.47858632,87.57726502,0.58393622,0.95299557,-0.67652834,2.31186462,-4.59381918,0.00000000,-4.01022887,2.09432293,0.20993698,2.31354241,0.00000000,0.70287599,-4.65973243,-5.00000214
0.15000000,-3.37928153,0.50518765,87.59487768,0.58398600,0.95308692,-0.67663712,2.16872794,-4.51037898,0.00000000,-3.79645236,1.98653237,0.20350223,2.23178337,0.00000000,0.63122268,-4.51478074,-5.00000214
0.15500000,-3.36351037,0.50459737,87.60752019,0.58388780,0.95304849,-0.67676208,2.11118325,-4.49877595,0.00000000,-3.69632860,1.89569206,0.22324425,2.21686009,0.00000000,0.57233745,-4.43130832,-5.00000214
0.16000000,-3.35794122,0.50762027,87.65677698,0.58378635,0.95311056,-0.67688884,2.06835983,-4.49623237,0.00000000,-3.64783369,1.82751631,0.23252877,2.21734198,0.00000000,0.53916901,-4.38932196,-5.00000214
0.16500000,-3.42401544,0.69319083,87.58505005,0.58391266,0.95331650,-0.67703957,1.96045663,-4.56540539,0.00000000,-3.85411496,2.24564371,-0.14905261,2.28699679,0.00000000,0.90600037,-4.79446883,-5.00000214
0.17000000,-3.40607413,0.67103427,87.60648259,0.58367936,0.95327460,-0.67709586,1.92068531,-4.56104577,0.00000000,-3.73432774,2.08983186,-0.08292713,2.28130166,0.00000000,0.80664506,-4.67396602,-5.00000214
0.17500000,-3.43340757,0.64254065,87.62115141,0.58360993,0.95323235,-0.67714231,1.96821908,-4.59716056,0.00000000,-3.79642602,2.23470207,-0.07636998,2.31867117,0.00000000,0.86524201,-4.79359332,-5.00000214
0.18000000,-3.40724582,0.62020302,87.65309076,0.58362540,0.95321239,-0.67722027,1.93798555,-4.56635866,0.00000000,-3.70371022,2.09343668,-0.01391865,2.28574170,0.00000000,0.77879158,-4.70159539,-5.00000214
0.18500000,-3.39013104,0.61556908,87.65985677,0.58360710,0.95324565,-0.67735552,1.90187948,-4.54935099,0.00000000,-3.63890946,2.01734767,-0.01048341,2.27562988,0.00000000,0.76323612,-4.60306514,-5.00000214
0.19000000,-3.42904918,0.70906527,87.57909414,0.58376483,0.95334410,-0.67755743,1.84693639,-4.58705482,0.00000000,-3.73648825,2.23350169,-0.23818354,2.31024916,0.00000000,0.99253229,-4.84573567,-5.00000214
0.19500000,-3.40826109,0.69330607,87.61400043,0.58363832,0.95332902,-0.67761595,1.79433103,-4.56764954,0.00000000,-3.61290533,2.05493836,-0.17873185,2.29221096,0.00000000,0.89310168,-4.70338168,-5.00000214
0.20000000,-3.37423016,0.69039925,87.62191904,0.58362851,0.95333479,-0.67767423,1.73210701,-4.53105917,0.00000000,-3.48436696,1.90618094,-0.13599164,2.25616008,0.00000000,0.78844142,-4.57603833,-5.00000214
0.20500000,-3.39805799,0.13999589,87.76698778,0.58443665,0.95306043,-0.67776883,2.31812035,-4.45961386,0.00000000,-3.56652848,1.97263827,0.49907064,2.19171727,0.00000000,0.74800730,-4.86777677,-5.00000214
0.21000000,-3.35637063,0.11144808,87.77359349,0.58449787,0.95303147,-0.67795490,2.26499759,-4.41033009,0.00000000,-3.41528146,1.82941694,0.54997563,2.13846350,0.00000000,0.66453951,-4.73647775,-5.00000214
0.21500000,-3.42386063,0.69497895,87.62475883,0.58360884,0.95330460,-0.67797151,1.77055885,-4.59124180,0.00000000,-3.64767843,2.20200478,-0.24227512,2.31717840,0.00000000,0.97056693,-4.77587693,-5.00000214
0.22000000,-3.41067585,0.65948753,87.63561100,0.58350746,0.95325789,-0.67805531,1.75205755,-4.58046511,0.00000000,-3.53645168,2.08387504,-0.18617492,2.30178127,0.00000000,0.92339903,-4.71464356,-5.00000214
0.22500000,-3.39151708,0.62781195,87.62384167,0.58345798,0.95323881,-0.67819021,1.72128752,-4.56094451,0.00000000,-3.40785676,1.92481245,-0.13053842,2.28895914,0.00000000,0.84032799,-4.56862372,-5.00000214
0.23000000,-3.39695004,0.69081194,87.63716425,0.58349978,0.95335123,-0.67822798,1.67598348,-4.57198938,0.00000000,-3.48263041,1.99707829,-0.21007786,2.29687791,0.00000000,0.86355420,-4.62260567,-5.00000214
0.23500000,-3.38725717,0.63899734,87.66252515,0.58349425,0.95329287,-0.67840096,1.66207038,-4.55859013,0.00000000,-3.37131051,1.91274075,-0.15521268,2.28562234,0.00000000,0.84230967,-4.51129542,-5.00000214
0.24000000,-3.35299793,0.59716789,87.66488611,0.58341887,0.95322971,-0.67852912,1.66725681,-4.52572892,0.00000000,-3.30171628,1.82398400,-0.07326618,2.24865257,0.00000000,0.74753292,-4.45442648,-5.00000214
0.24500000,-3.33869068,0.61068709,87.70601913,0.58323230,0.95325802,-0.67847952,1.62816966,-4.51710956,0.00000000,-3.25536707,1.76255403,-0.03735524,2.24310705,0.00000000,0.66133022,-4.37369003,-5.00000214
0.25000000,-3.43084148,0.66651524,87.63129727,0.58328266,0.95327873,-0.67865543,1.69349653,-4.61984433,0.00000000,-3.52800950,2.21265449,-0.23930191,2.34378918,0.00000000,0.93647788,-4.66703612,-5.00000214
0.25500000,-3.39658809,0.63410064,87.63282771,0.58331109,0.95327137,-0.67876657,1.64640205,-4.57856595,0.00000000,-3.37054179,2.02780628,-0.16846642,2.30006402,0.00000000,0.82394142,-4.49969749,-5.00000214
0.26000000,-3.37259740,0.61516321,87.68144378,0.58317327,0.95333032,-0.67889980,1.60044839,-4.56351368,0.00000000,-3.27491240,1.90106375,-0.11769542,2.28682828,0.00000000,0.74235832,-4.39084263,-5.00000214
0.26500000,-3.34276976,0.56166371,87.69123801,0.58331913,0.95321751,-0.67899123,1.62096633,-4.51760887,0.00000000,-3.20922150,1.80694366,-0.04537717,2.24405134,0.00000000,0.68984012,-4.32326616,-5.00000214
0.27000000,-3.33191415,0.52002374,87.73684047,0.58321278,0.95313340,-0.67909978,1.63726192,-4.51062056,0.00000000,-3.17420714,1.74592863,0.02892832,2.22792324,0.00000000,0.62976846,-4.32554341,-5.00000214
0.27500000,-3.43077747,0.64855219,87.66290082,0.58319623,0.95325396,-0.67932050,1.63197048,-4.62852586,0.00000000,-3.46528984,2.20378070,-0.30187188,2.35040869,0.00000000,1.01672717,-4.75019889,-5.00000214
0.28000000,-3.41458339,0.63759755,87.71087182,0.58313538,0.95320686,-0.67933538,1.59861996,-4.60863543,0.00000000,-3.39248800,2.07441013,-0.24808164,2.33225049,0.00000000,0.93229019,-4.64917785,-5.00000214
0.28500000,-3.40746753,0.66681870,87.68408752,0.58327038,0.95323884,-0.67939878,1.56687619,-4.59836388,0.00000000,-3.39421121,2.07293377,-0.29422316,2.31757186,0.00000000,0.93305281,-4.63532864,-5.00000214
0.29000000,-3.40494600,0.63826450,87.64391167,0.58335650,0.95322928,-0.67966096,1.57435765,-4.59245437,0.00000000,-3.36768013,2.06259758,-0.31112924,2.31704113,0.00000000,0.97478512,-4.59240097,-5.00000214
0.29500000,-3.39757556,0.61774909,87.71022429,0.58315488,0.95324652,-0.67968522,1.56555768,-4.59594877,0.00000000,-3.32968841,1.96998558,-0.26461434,2.32293883,0.00000000,0.94452425,-4.50447391,-5.00000214
0.30000000,-3.28352378,1.09186742,87.61751822,0.58409735,0.95404358,-0.68054438,0.93264157,-4.42279846,0.00000000,-3.19729200,2.10155249,-1.07401366,2.15359695,0.00000000,1.41185972,-4.85814049,-5.00000214
0.30500000,-3.27821180,1.03646852,87.63109329,0.58403669,0.95397503,-0.68064519,0.96805203,-4.41533840,0.00000000,-3.14752743,1.99111652,-0.98102902,2.14294006,0.00000000,1.33454951,-4.80816084,-5.00000214
0.31000000,-3.24857592,1.02322458,87.65005592,0.58401223,0.95396491,-0.68073630,0.93894873,-4.38526965,0.00000000,-3.07340482,1.85331283,-0.92511822,2.11059738,0.00000000,1.22060356,-4.70741299,-5.00000214
0.31500000,-3.43703361,0.59213724,87.61188436,0.58326018,0.95311146,-0.68024192,1.69662004,-4.63461656,0.00000000,-3.58104376,2.32778755,-0.39306658,2.35756520,0.00000000,1.18189801,-4.71488146,-5.00000214
0.32000000,-3.39843127,0.56942573,87.65256133,0.58321784,0.95312254,-0.68034812,1.65290893,-4.59489350,0.00000000,-3.46793169,2.17709822,-0.32475961,2.31568187,0.00000000,1.07151014,-4.59848283,-5.00000214
0.32500000,-3.36730997,0.52811262,87.64256879,0.58324971,0.95309026,-0.68043651,1.65730018,-4.55383630,0.00000000,-3.37768533,2.04333155,-0.24761399,2.27893297,0.00000000,0.98759825,-4.48346373,-5.00000214
0.33000000,-3.27677346,0.60823640,87.66522869,0.58374922,0.95340982,-0.68092063,1.48016756,-4.41600073,0.00000000,-3.28442072,1.93787378,-0.34846331,2.14749929,0.00000000,0.93486251,-4.38543453,-5.00000214
0.33500000,-3.31721213,0.96807513,87.61280115,0.58388125,0.95383873,-0.68118383,1.08913337,-4.47130742,0.00000000,-3.31662325,2.20832365,-0.94512089,2.19900830,0.00000000,1.32741488,-4.67503709,-5.00000214
0.34000000,-3.32245951,0.95523436,87.67226855,0.58365463,0.95378568,-0.68135350,1.03933451,-4.48717423,0.00000000,-3.23256361,2.12777375,-0.89919542,2.21803881,0.00000000,1.25188520,-4.64146606,-5.00000214
0.34500000,-3.30779993,0.97033477,87.70288458,0.58361080,0.95383456,-0.68143378,0.96516705,-4.47413818,0.00000000,-3.14347873,2.00408955,-0.88642656,2.20834505,0.00000000,1.17064965,-4.52383327,-5.00000214
0.35000000,-3.31345533,0.96644913,87.69451349,0.58362637,0.95377160,-0.68160461,0.96796409,-4.48119809,0.00000000,-3.15663202,2.08066311,-0.92363809,2.21664397,0.00000000,1.23804634,-4.59054678,-5.00000214
0.35500000,-3.31035876,0.92896442,87.69728816,0.58358973,0.95369171,-0.68166796,1.00015062,-4.47689357,0.00000000,-3.14415895,2.02332375,-0.86601656,2.21081122,0.00000000,1.19774382,-4.56833587,-5.00000214
0.36000000,-3.33982448,0.93911049,87.68994217,0.58351024,0.95365138,-0.68172997,1.02678280,-4.51502863,0.00000000,-3.22751924,2.11739358,-0.88661811,2.24678593,0.00000000,1.21687859,-4.64061188,-5.00000214
0.36500000,-3.31922307,0.89739616,87.69399216,0.58346538,0.95363368,-0.68184150,1.02318503,-4.49364751,0.00000000,-3.14357770,2.00517457,-0.82893087,2.22827095,0.00000000,1.16726124,-4.49237443,-5.00000214
0.37000000,-3.30074230,0.87059745,87.71645866,0.58341270,0.95363049,-0.68196080,1.01209877,-4.47548367,0.00000000,-3.08567922,1.89770648,-0.76546344,2.21126378,0.00000000,1.07374606,-4.41848162,-5.00000214
0.37500000,-3.35332042,0.93498950,87.68516902,0.58343636,0.95368039,-0.68205723,1.01170767,-4.54009272,0.00000000,-3.24609636,2.27367103,-0.92408984,2.27141829,0.00000000,1.25597926,-4.64288050,-5.00000214
0.38000000,-3.34546899,0.88148738,87.67385904,0.58337369,0.95360945,-0.68222817,1.05262391,-4.53464154,0.00000000,-3.21513139,2.16871866,-0.86534178,2.26608932,0.00000000,1.22601413,-4.57588090,-5.00000214
0.38500000,-3.32247060,0.83569366,87.69229016,0.58331353,0.95352755,-0.68230042,1.07320887,-4.50717757,0.00000000,-3.15926000,2.02055978,-0.75671987,2.24063865,0.00000000,1.10069986,-4.47432650,-5.00000214
0.39000000,-3.33069176,0.83597383,87.70673155,0.58332445,0.95353629,-0.68235793,1.04809512,-4.51025255,0.00000000,-3.10596255,1.91297675,-0.72423049,2.24588754,0.00000000,1.01857103,-4.39512898,-5.00000214
0.39500000,-3.30112487,0.81757064,87.71763310,0.58327234,0.95350751,-0.68252501,1.01369450,-4.48599892,0.00000000,-3.03101023,1.86773622,-0.70484401,2.21709255,0.00000000,0.98454977,-4.31770604,-5.00000214
0.40000000,-3.37608201,0.90125051,87.66096639,0.58318769,0.95357467,-0.68269248,1.03377789,-4.58762658,0.00000000,-3.29176834,2.33262720,-0.95152755,2.31722616,0.00000000,1.30166917,-4.67949589,-5.00000214
0.40500000,-3.35478621,0.84265163,87.65290315,0.58329190,0.95350985,-0.68279473,1.06145379,-4.55349710,0.00000000,-3.21367362,2.18275669,-0.86016911,2.28530846,0.00000000,1.21924665,-4.56747461,-5.00000214
0.41000000,-3.38261392,0.91258012,87.63317369,0.58328426,0.95354115,-0.68294013,1.03318197,-4.58908077,0.00000000,-3.32930860,2.36440975,-0.98807676,2.31743423,0.00000000,1.31425487,-4.65950975,-5.00000214
0.41500000,-3.38014313,0.85030475,87.65578947,0.58305512,0.95343827,-0.68311475,1.06887307,-4.59429038,0.00000000,-3.28552952,2.31144973,-0.92194932,2.32655564,0.00000000,1.30269813,-4.62739134,-5.00000214
0.42000000,-3.39738428,0.89593330,87.63715396,0.58323073,0.95350431,-0.68312699,1.03215622,-4.60446918,0.00000000,-3.30923679,2.32702376,-0.96623814,2.33678911,0.00000000,1.28801302,-4.61084621,-5.00000214
0.42500000,-3.38926698,0.83480692,87.62652767,0.58319556,0.95344794,-0.68342593,1.05186305,-4.59788630,0.00000000,-3.26732931,2.37426579,-0.93922656,2.33277229,0.00000000,1.30700061,-4.49835977,-5.00000214
0.43000000,-3.36151005,0.84121064,87.64143144,0.58323059,0.95345559,-0.68339477,1.02126904,-4.56669153,0.00000000,-3.21422723,2.21617124,-0.88208041,2.29719640,0.00000000,1.17454352,-4.42496014,-5.00000214
0.43500000,-3.34953214,0.81082082,87.67146420,0.58317649,0.95345047,-0.68347570,1.01824753,-4.55512172,0.00000000,-3.15249434,2.08221865,-0.79960332,2.28743462,0.00000000,1.06498678,-4.33908485,-5.00000214
0.44000000,-3.34146446,0.76138783,87.67229334,0.58310366,0.95334698,-0.68360885,1.04572499,-4.54709703,0.00000000,-3.10529280,1.97756672,-0.72079175,2.28205528,0.00000000,0.99981271,-4.23694209,-5.00000214
0.44500000,-3.42553005,0.83387460,87.60561537,0.58308738,0.95334589,-0.68375964,1.09082118,-4.64662650,0.00000000,-3.37561896,2.49075759,-0.94991892,2.38453070,0.00000000,1.29775345,-4.41400024,-5.00000214
0.45000000,-3.40334196,0.81931528,87.63534755,0.58308828,0.95329840,-0.68383679,1.07173787,-4.61785514,0.00000000,-3.32591150,2.42323546,-0.90342431,2.34884709,0.00000000,1.23263181,-4.54634979,-5.00000214
0.45500000,-3.40217069,0.85863862,87.63615439,0.58310832,0.95338136,-0.68390447,1.01940718,-4.61873713,0.00000000,-3.31985079,2.37989550,-0.95353589,2.35810004,0.00000000,1.22626134,-4.49186343,-5.00000214
0.46000000,-3.41222673,0.85531799,87.61125291,0.58314378,0.95337935,-0.68409927,1.02873837,-4.63366397,0.00000000,-3.35960996,2.50118347,-1.02737249,2.36812694,0.00000000,1.36167909,-4.57912436,-5.00000214
0.46500000,-3.39055277,0.80397560,87.61682242,0.58309290,0.95332774,-0.68419572,1.04121679,-4.60907511,0.00000000,-3.26519140,2.31090680,-0.92367121,2.34403835,0.00000000,1.24423318,-4.46135969,-5.00000214
0.47000000,-3.42742048,0.83465302,87.60306159,0.58304955,0.95332948,-0.68436887,1.03887044,-4.65254395,0.00000000,-3.35651857,2.50040555,-1.02734130,2.38824103,0.00000000,1.37375261,-4.57267067,-5.00000214
0.47500000,-3.41095482,0.81339118,87.59911620,0.58303193,0.95335166,-0.68445566,1.01520980,-4.63101713,0.00000000,-3.25819557,2.31414102,-0.96397506,2.37252292,0.00000000,1.26810443,-4.40663327,-5.00000214
0.48000000,-3.38047833,0.79283531,87.62894999,0.58302426,0.95333694,-0.68452836,0.98327684,-4.59979344,0.00000000,-3.15936457,2.17349907,-0.91223741,2.33617191,0.00000000,1.19189291,-4.28751968,-5.00000214
0.48500000,-3.35861548,0.75169176,87.65002296,0.58294477,0.95329743,-0.68475511,0.96558269,-4.58059658,0.00000000,-3.07576412,2.09206651,-0.86900240,2.31784241,0.00000000,1.15167142,-4.21484642,-5.00000214
0.49000000,-3.42235268,0.85823795,87.60049543,0.58307666,0.95336508,-0.68475005,0.96907595,-4.65070457,0.00000000,-3.31998019,2.51460596,-1.12166318,2.38990183,0.00000000,1.45372117,-4.56926184,-5.00000214
0.49500000,-3.40020282,0.83566888,87.62169843,0.58302418,0.95334142,-0.68482074,0.95010239,-4.62757329,0.00000000,-3.23884404,2.36827508,-1.06219847,2.36434616,0.00000000,1.36740929,-4.45742460,-5.00000214
0.50000000,-3.39537436,0.80941812,87.62609251,0.58298222,0.95328921,-0.68491278,0.94516986,-4.61834423,0.00000000,-3.16268975,2.21147058,-1.00420471,2.35823129,0.00000000,1.28292553,-4.34404782,-5.00000214
0.50500000,-3.38592262,0.82087325,87.66723047,0.58295388,0.95329492,-0.68505007,0.90873430,-4.60607664,0.00000000,-3.16928507,2.30823696,-1.05365345,2.34972722,0.00000000,1.35144569,-4.38201996,-5.00000214
0.51000000,-3.37692563,0.82589108,87.64488015,0.58292939,0.95332471,-0.68514521,0.86295910,-4.60680147,0.00000000,-3.08960022,2.21401126,-1.04611012,2.34177928,0.00000000,1.28890821,-4.29799975,-5.00000214
0.51500000,-3.38690342,0.87150919,87.63986359,0.58302049,0.95339254,-0.68523763,0.83224272,-4.61675345,0.00000000,-3.14411953,2.28605578,-1.11384718,2.35322134,0.00000000,1.31930996,-4.34733921,-5.00000214
0.52000000,-3.36622242,0.82798209,87.65196171,0.58299034,0.95335477,-0.68534876,0.84230896,-4.59296252,0.00000000,-3.07580134,2.16668950,-1.04860149,2.33091065,0.00000000,1.26446226,-4.26553366,-5.00000214
0.52500000,-3.42856261,0.89612174,87.60951740,0.58308882,0.95336371,-0.68549893,0.84997646,-4.65877783,0.00000000,-3.26863448,2.55706670,-1.26983057,2.39560841,0.00000000,1.57096411,-4.60597817,-5.00000214
0.53000000,-3.40917909,0.86887520,87.62100858,0.58296825,0.95333768,-0.68561739,0.83190326,-4.64115950,0.00000000,-3.18506399,2.41116030,-1.21717277,2.37640402,0.00000000,1.49270119,-4.49945613,-5.00000214
0.53500000,-3.40012266,0.84809441,87.64481162,0.58295345,0.95334141,-0.68573073,0.80133485,-4.63041084,0.00000000,-3.09635595,2.30287060,-1.19960523,2.37272944,0.00000000,1.47052456,-4.35250674,-5.00000214
0.54000000,-3.37598590,0.83911279,87.66170771,0.58299238,0.95335001,-0.68581046,0.76724129,-4.60285984,0.00000000,-3.02827390,2.22429227,-1.16927954,2.34222448,0.00000000,1.41048816,-4.28748262,-5.00000214
0.54500000,-3.38462267,0.90468736,87.66944414,0.58301431,0.95348016,-0.68583844,0.71652030,-4.61476787,0.00000000,-3.08936347,2.28187473,-1.24436972,2.36051251,0.00000000,1.42309341,-4.32948649,-5.00000214
0.55000000,-3.37780525,0.85038380,87.66711238,0.58302062,0.95338181,-0.68594754,0.75617809,-4.60315703,0.00000000,-3.05385146,2.26045417,-1.19055884,2.34125510,0.00000000,1.42452378,-4.32046017,-5.00000214
0.55500000,-3.44177961,0.83737439,87.62628526,0.58298953,0.95331711,-0.68614508,0.84399256,-4.67455630,0.00000000,-3.22325240,2.55828974,-1.28107684,2.41568336,0.00000000,1.62405621,-4.51273431,-5.00000214
0.56000000,-3.41758074,0.76080171,87.63245424,0.58289301,0.95329497,-0.68635469,0.86545314,-4.64905281,0.00000000,-3.12294022,2.39051619,-1.20385936,2.39927914,0.00000000,1.59837336,-4.34892029,-5.00000214
0.56500000,-3.42010232,0.83939569,87.63178810,0.58297806,0.95342299,-0.68625022,0.81362752,-4.65383883,0.00000000,-3.19072520,2.43721867,-1.28169960,2.40082421,0.00000000,1.59129663,-4.39177901,-5.00000214
0.57000000,-3.38222181,0.79048794,87.66918803,0.58304394,0.95336249,-0.68641331,0.77453992,-4.60474281,0.00000000,-3.04112052,2.30156029,-1.19677818,2.34566689,0.00000000,1.49347495,-4.27612675,-5.00000214
0.57500000,-3.37632540,0.76640887,87.67789975,0.58305030,0.95331161,-0.68647770,0.76771803,-4.59691492,0.00000000,-2.97843727,2.19771929,-1.13676176,2.33824167,0.00000000,1.41767805,-4.20577816,-5.00000214
0.58000000,-3.37315429,0.71379972,87.70048511,0.58289999,0.95318600,-0.68668915,0.79677783,-4.59709318,0.00000000,-2.95180519,2.17823674,-1.08127968,2.34499543,0.00000000,1.39965738,-4.20014428,-5.00000214
0.58500000,-3.36507849,0.65979137,87.69834484,0.58287815,0.95312321,-0.68686262,0.81760374,-4.58477989,0.00000000,-2.88428606,2.08770517,-1.01906109,2.32778065,0.00000000,1.36326991,-4.15289406,-5.00000214
0.59000000,-3.43492651,0.77916060,87.65680250,0.58299220,0.95323942,-0.68683628,0.81135759,-4.66255732,0.00000000,-3.14987590,2.56874585,-1.25590393,2.40430789,0.00000000,1.60453065,-4.48512315,-5.00000214
0.59500000,-3.40356377,0.76528513,87.64787158,0.58305238,0.95328251,-0.68694612,0.76817961,-4.62474310,0.00000000,-3.04019874,2.41466826,-1.22434379,2.36705295,0.00000000,1.53408128,-4.34268934,-5.00000214
0.60000000,-3.41718929,0.82521675,87.64839466,0.58312168,0.95339307,-0.68698401,0.73372760,-4.63998785,0.00000000,-3.12171438,2.56999084,-1.32506569,2.38368985,0.00000000,1.61695823,-4.45233046,-5.00000214
0.60500000,-3.39416676,0.75498420,87.67330474,0.58275262,0.95335614,-0.68726396,0.72425102,-4.63877276,0.00000000,-2.97265775,2.32703656,-1.21849994,2.38462100,0.00000000,1.51096514,-4.25059395,-5.00000214
0.61000000,-3.38979077,0.79429524,87.67523552,0.58305370,0.95335960,-0.68719942,0.68258310,-4.60956303,0.00000000,-2.96044277,2.30315268,-1.23040259,2.35058425,0.00000000,1.46086612,-4.23570512,-5.00000214
0.61500000,-3.38488183,0.76024852,87.69483427,0.58302360,0.95330132,-0.68730259,0.67350736,-4.60044956,0.00000000,-2.88209433,2.20929918,-1.17315352,2.34695543,0.00000000,1.40481942,-4.16419986,-5.00000214
0.62000000,-3.42726992,0.72463434,87.63519334,0.58304014,0.95324167,-0.68754046,0.79413685,-4.65115939,0.00000000,-3.08323965,2.56369452,-1.27024939,2.39841543,0.00000000,1.65246352,-4.47408103,-5.00000214
0.62500000,-3.43135393,0.81817295,87.66471797,0.58312247,0.95339338,-0.68737281,0.69802698,-4.65203348,0.00000000,-3.08536620,2.50950494,-1.32629955,2.39925395,0.00000000,1.58349311,-4.43079051,-5.00000214
0.63000000,-3.37630459,0.72362867,87.66874942,0.58309334,0.95331987,-0.68762773,0.72073969,-4.58562750,0.00000000,-2.95861482,2.35711195,-1.21461741,2.33498799,0.00000000,1.51692466,-4.31522902,-5.00000214
0.63500000,-3.39470734,0.73878731,87.68783394,0.58313068,0.95336977,-0.68755563,0.67755326,-4.60299915,0.00000000,-2.88447184,2.22658009,-1.18325899,2.35419754,0.00000000,1.43707742,-4.15492555,-5.00000214
0.64000000,-3.39577216,0.73380438,87.72647155,0.58304724,0.95333724,-0.68762584,0.67005485,-4.60452573,0.00000000,-2.87592138,2.23685788,-1.15239836,2.35256476,0.00000000,1.38088319,-4.18036655,-5.00000214
0.64500000,-3.37800487,0.70801064,87.71054926,0.58306437,0.95331994,-0.68770346,0.67256375,-4.58368327,0.00000000,-2.82589252,2.14503656,-1.10492319,2.33658453,0.00000000,1.32945265,-4.08922174,-5.00000214
0.65000000,-3.42901173,0.77970971,87.69081068,0.58314482,0.95336506,-0.68772969,0.69311497,-4.64392588,0.00000000,-3.05947222,2.58341826,-1.26849783,2.39397629,0.00000000,1.52290377,-4.35926644,-5.00000214
0.65500000,-3.41562603,0.75521238,87.71914912,0.58313222,0.95337441,-0.68777587,0.68277966,-4.62868377,0.00000000,-2.98562568,2.42619864,-1.20998253,2.37981177,0.00000000,1.45151626,-4.24064513,-5.00000214
0.66000000,-3.39108557,0.73382849,87.71865197,0.58316441,0.95335913,-0.68784047,0.66840177,-4.59385531,0.00000000,-2.90183538,2.26333485,-1.15274213,2.34901102,0.00000000,1.35783575,-4.11540517,-5.00000214
0.66500000,-3.42880307,0.70643199,87.68429894,0.58312417,0.95326203,-0.68802083,0.77183788,-4.63980754,0.00000000,-3.08855749,2.60887933,-1.22539608,2.38583101,0.00000000,1.55967307,-4.47672390,-5.00000214
0.67000000,-3.41787798,0.70734371,87.70488296,0.58287689,0.95331392,-0.68801765,0.73098683,-4.64558131,0.00000000,-2.99723714,2.41241993,-1.17701475,2.39679590,0.00000000,1.45738394,-4.29232873,-5.00000214
0.67500000,-3.38259403,0.66832968,87.72420595,0.58316632,0.95327620,-0.68798387,0.72807703,-4.58121517,0.00000000,-2.90787888,2.25525356,-1.07825200,2.33094757,0.00000000,1.32892505,-4.17576447,-5.00000214
0.68000000,-3.42242902,0.67424714,87.67199162,0.58322336,0.95325774,-0.68812018,0.81329362,-4.62578926,0.00000000,-3.11673835,2.61063212,-1.17671599,2.38056390,0.00000000,1.50945845,-4.35131476,-5.00000214
0.68500000,-3.40696464,0.69179365,87.71749800,0.58323877,0.95332243,-0.68806029,0.75469500,-4.60663204,0.00000000,-3.03006124,2.42212926,-1.13613373,2.36118562,0.00000000,1.39746498,-4.18576662,-5.00000214
0.69000000,-3.38408844,0.66099927,87.76496008,0.58294039,0.95330060,-0.68819428,0.72623057,-4.59632378,0.00000000,-2.92542707,2.25500183,-1.05417022,2.35037667,0.00000000,1.27814625,-4.08178380,-5.00000214
0.69500000,-3.39422055,0.68086818,87.76117272,0.58316288,0.95331634,-0.68812716,0.69492742,-4.58549170,0.00000000,-2.88769102,2.21308161,-1.06173828,2.34376318,0.00000000,1.25279284,-4.02125361,-5.00000214
0.70000000,-3.45087068,0.73628287,87.68510403,0.58319435,0.95330808,-0.68817117,0.75838838,-4.65513246,0.00000000,-3.14777169,2.68417399,-1.22344512,2.41011301,0.00000000,1.47044968,-4.29715480,-5.00000214
0.70500000,-3.44319238,0.84972002,87.67728532,0.58324174,0.95346011,-0.68806599,0.68613503,-4.65499972,0.00000000,-3.25174786,2.77960544,-1.34837073,2.40669437,0.00000000,1.48478169,-4.37177478,-5.00000214
0.71000000,-3.39684581,0.76056532,87.67710934,0.58318944,0.95335597,-0.68832560,0.70334626,-4.60664470,0.00000000,-3.11544289,2.58050507,-1.24137096,2.35478002,0.00000000,1.40510467,-4.25640472,-5.00000214
0.71500000,-3.40613050,0.76000537,87.72889028,0.58317640,0.95337970,-0.68823487,0.67144662,-4.61330981,0.00000000,-3.04125844,2.43376233,-1.18947690,2.35934956,0.00000000,1.33068392,-4.16063603,-5.00000214
0.72000000,-3.45050283,0.76034136,87.67954452,0.58320942,0.95336127,-0.68829087,0.73842481,-4.65820226,0.00000000,-3.16805525,2.66398146,-1.26630682,2.41311882,0.00000000,1.49312502,-4.33514372,-5.00000214
0.72500000,-3.42451193,0.73933184,87.69522532,0.58316303,0.95337861,-0.68834272,0.70962497,-4.62815658,0.00000000,-3.06666876,2.49130954,-1.20439047,2.38231146,0.00000000,1.39082032,-4.19206601,-5.00000214
0.73000000,-3.40765432,0.73778686,87.70894946,0.58311826,0.95339131,-0.68835809,0.67582643,-4.61307324,0.00000000,-2.99297339,2.36446129,-1.16819929,2.36425648,0.00000000,1.31003588,-4.09709245,-5.00000214
0.73500000,-3.44541029,0.77996367,87.65014216,0.58329275,0.95342061,-0.68834073,0.73212474,-4.65023048,0.00000000,-3.20636502,2.71617602,-1.29605408,2.40388893,0.00000000,1.49261059,-4.36136927,-5.00000214
0.74000000,-3.40481882,0.76364909,87.67271653,0.58327082,0.95340525,-0.68838568,0.69668958,-4.60955418,0.00000000,-3.10481015,2.54591524,-1.22398369,2.35653143,0.00000000,1.36855274,-4.28876504,-5.00000214
0.74500000,-3.38106866,0.70254122,87.67842466,0.58316555,0.95337377,-0.68857936,0.70578990,-4.58487265,0.00000000,-3.00463177,2.38355887,-1.15187126,2.33887843,0.00000000,1.31651280,-4.16373363,-5.00000214
0.75000000,-3.37595892,0.72323503,87.69815134,0.58314525,0.95336622,-0.68848048,0.67081903,-4.58012507,0.00000000,-2.95586572,2.27518710,-1.12487242,2.33032896,0.00000000,1.23628651,-4.09500021,-5.00000214
0.75500000,-3.35626174,0.71080970,87.72404544,0.58307325,0.95335410,-0.68853558,0.64146143,-4.55663618,0.00000000,-2.89071754,2.19432991,-1.08808306,2.30920989,0.00000000,1.18311120,-4.01238825,-5.00000214
0.76000000,-3.34878460,0.70063678,87.71021816,0.58305628,0.95336073,-0.68868994,0.60702946,-4.55180403,0.00000000,-2.81694597,2.16126773,-1.09443989,2.30412917,0.00000000,1.17518928,-3.95571646,-5.00000214
0.76500000,-3.42256793,0.77706102,87.63368243,0.58314406,0.95340580,-0.68874620,0.66469568,-4.63844709,0.00000000,-3.11971655,2.69994052,-1.32647007,2.38764927,0.00000000,1.49629868,-4.42058973,-5.00000214
0.77000000,-3.40427957,0.85099421,87.65722475,0.58319038,0.95349961,-0.68862619,0.57707550,-4.61779901,0.00000000,-3.08054049,2.53267866,-1.34177871,2.36769725,0.00000000,1.37611916,-4.31557100,-5.00000214
0.77500000,-3.39141845,0.78105883,87.66304840,0.58312275,0.95340064,-0.68880598,0.59003882,-4.60255343,0.00000000,-2.96948025,2.37040305,-1.25482478,2.35183976,0.00000000,1.32398814,-4.18559562,-5.00000214
0.78000000,-3.43187276,0.81373593,87.60576018,0.58316561,0.95337009,-0.68888140,0.62958962,-4.64972127,0.00000000,-3.12902543,2.68738027,-1.37890231,2.39813385,0.00000000,1.50880671,-4.40064402,-5.00000214
0.78500000,-3.42494732,0.79829431,87.59955608,0.58321199,0.95342197,-0.68891802,0.60132203,-4.63655052,0.00000000,-3.02707958,2.51956697,-1.34513695,2.39119735,0.00000000,1.45359189,-4.22408768,-5.00000214
0.79000000,-3.42886508,0.86407658,87.62510683,0.58317819,0.95347396,-0.68879320,0.56635632,-4.64595728,0.00000000,-3.11245888,2.68187274,-1.40807570,2.39589949,0.00000000,1.47330085,-4.37341931,-5.00000214
0.79500000,-3.39480537,0.81443151,87.62666590,0.58313319,0.95342773,-0.68899517,0.56022778,-4.61227809,0.00000000,-3.01654805,2.53581371,-1.35075401,2.36089415,0.00000000,1.41984120,-4.27476825,-5.00000214
0.80000000,-3.35153151,0.76417903,87.65251488,0.58297401,0.95338580,-0.68904683,0.56200660,-4.56995046,0.00000000,-2.91785590,2.37782508,-1.26677409,2.32074734,0.00000000,1.34546154,-4.14530694,-5.00000214
0.80500000,-3.35904168,0.75997297,87.65677197,0.58304435,0.95338611,-0.68903088,0.55372954,-4.57089145,0.00000000,-2.87651036,2.29037116,-1.22753178,2.32125942,0.00000000,1.27867345,-4.08475779,-5.00000214
0.81000000,-3.42016323,0.77287293,87.59131331,0.58310740,0.95334341,-0.68911937,0.63903750,-4.63827500,0.00000000,-3.08484345,2.69487778,-1.34409959,2.38723260,0.00000000,1.48539400,-4.32881215,-5.00000214
0.81500000,-3.41125552,0.80807676,87.63944099,0.58280970,0.95345900,-0.68899808,0.57126065,-4.64890481,0.00000000,-3.00998460,2.46911394,-1.31078189,2.40544737,0.00000000,1.35901300,-4.14968292,-5.00000214
0.82000000,-3.41819359,0.77600658,87.60525543,0.58314820,0.95337864,-0.68910364,0.64311136,-4.63449148,0.00000000,-3.10495997,2.70850889,-1.32737637,2.37889903,0.00000000,1.46312408,-4.48970760,-5.00000214
0.82500000,-3.43346739,0.84383629,87.56936509,0.58325217,0.95347941,-0.68897694,0.61024895,-4.64985801,0.00000000,-3.14925055,2.70482697,-1.40657728,2.39939192,0.00000000,1.48361160,-4.41737744,-5.00000214
0.83000000,-3.40456635,0.82353497,87.60955419,0.58316423,0.95345529,-0.68899737,0.58706393,-4.61963403,0.00000000,-3.06197366,2.53503396,-1.33681789,2.36836806,0.00000000,1.38023278,-4.29143982,-5.00000214
0.83500000,-3.40049176,0.78396403,87.67243515,0.58271556,0.95341852,-0.68911190,0.56687092,-4.64296132,0.00000000,-2.95877334,2.36270518,-1.24929064,2.38941020,0.00000000,1.27061022,-4.15274825,-5.00000214
0.84000000,-3.40197227,0.82579030,87.62844896,0.58298447,0.95343299,-0.68913055,0.53288489,-4.62653902,0.00000000,-2.98042838,2.48376984,-1.33378090,2.37556956,0.00000000,1.34056648,-4.20073772,-5.00000214
0.84500000,-3.39782852,0.89600340,87.63979757,0.58307517,0.95350726,-0.68903842,0.45980183,-4.61876878,0.00000000,-2.98939574,2.46938046,-1.38326452,2.36536508,0.00000000,1.30035461,-4.19519679,-5.00000214
0.85000000,-3.41472246,0.83164618,87.58302324,0.58302528,0.95342299,-0.68920494,0.58166050,-4.64284511,0.00000000,-3.10777788,2.67181029,-1.40266873,2.39102556,0.00000000,1.46652228,-4.42447229,-5.00000214
0.85500000,-3.44924469,0.90440595,87.58664757,0.58313785,0.95351379,-0.68911754,0.54496862,-4.67649622,0.00000000,-3.18244462,2.76201047,-1.48525006,2.42463613,0.00000000,1.50036981,-4.49335849,-5.00000214
0.86000000,-3.43848616,0.88933611,87.60036587,0.58315620,0.95349330,-0.68913245,0.54048739,-4.65996645,0.00000000,-3.13393583,2.68069231,-1.44360876,2.41070701,0.00000000,1.45119672,-4.42294504,-5.00000214
0.86500000,-3.42040296,0.85346450,87.62178000,0.58309230,0.95349161,-0.68919997,0.50705029,-4.64152102,0.00000000,-2.99484898,2.47854035,-1.36575280,2.39361727,0.00000000,1.35362104,-4.21015616,-5.00000214
0.87000000,-3.39741300,0.85746170,87.65364157,0.58305129,0.95351233,-0.68918289,0.45830415,-4.61720414,0.00000000,-2.92338493,2.42010503,-1.34293327,2.36803472,0.00000000,1.29329695,-4.13724269,-5.00000214
0.87500000,-3.42986960,0.81919639,87.60298618,0.58315269,0.95346818,-0.68931839,0.55824436,-4.65078290,0.00000000,-3.06505137,2.67068954,-1.38775059,2.39743096,0.00000000,1.45106197,-4.35186239,-5.00000214
0.88000000,-3.39031559,0.80222000,87.63513935,0.58319720,0.95346511,-0.68932759,0.53007786,-4.59966204,0.00000000,-2.97946487,2.51796382,-1.32420390,2.34995925,0.00000000,1.35214829,-4.22188551,-5.00000214
0.88500000,-3.42761237,0.83806485,87.64870403,0.58328944,0.95347385,-0.68916911,0.55020576,-4.63177473,0.00000000,-3.07489822,2.65139671,-1.35112660,2.38235181,0.00000000,1.37065651,-4.32081336,-5.00000214
0.89000000,-3.37555017,0.74271206,87.65544592,0.58314854,0.95331991,-0.68936593,0.58693014,-4.57788017,0.00000000,-2.95598806,2.45988109,-1.22216582,2.32870320,0.00000000,1.27958606,-4.18076850,-5.00000214
0.89500000,-3.42817712,0.84767284,87.65997942,0.58315941,0.95350085,-0.68917773,0.52328889,-4.64092511,0.00000000,-3.03020950,2.52224772,-1.32030704,2.39558365,0.00000000,1.28287026,-4.22878673,-5.00000214
0.90000000,-3.39235713,0.81927719,87.67045160,0.58323657,0.95349761,-0.68924191,0.49344019,-4.59546092,0.00000000,-2.92651977,2.43988441,-1.27660268,2.34617732,0.00000000,1.23745661,-4.12141920,-5.00000214
0.90500000,-3.42837169,0.85160844,87.64655791,0.58328302,0.95355529,-0.68928098,0.48683235,-4.63778648,0.00000000,-3.00049933,2.67448206,-1.37557071,2.39516013,0.00000000,1.36541955,-4.18787281,-5.00000214
0.91000000,-3.39906505,0.84134791,87.64825280,0.58330268,0.95355052,-0.68930430,0.47635700,-4.60529037,0.00000000,-2.95287957,2.52754409,-1.31996876,2.35703168,0.00000000,1.26240251,-4.11148707,-5.00000214
0.91500000,-3.43867878,0.85161047,87.62867965,0.58328315,0.95350298,-0.68930266,0.53704838,-4.65026803,0.00000000,-3.09157267,2.69788723,-1.37548152,2.40238189,0.00000000,1.36895946,-4.23560578,-5.00000214
0.92000000,-3.41358535,0.82873954,87.67243113,0.58322715,0.95343024,-0.68932234,0.50691710,-4.62000205,0.00000000,-2.98211501,2.49399293,-1.29031126,2.36915248,0.00000000,1.23771288,-4.10790884,-5.00000214
0.92500000,-3.45479200,0.85419595,87.63640213,0.58326340,0.95340754,-0.68931725,0.54406393,-4.66388434,0.00000000,-3.10395950,2.66587505,-1.40016145,2.41507682,0.00000000,1.41544419,-4.32916529,-5.00000214
0.93000000,-3.45017640,0.94727283,87.62347173,0.58332164,0.95355631,-0.68927430,0.47013875,-4.66144619,0.00000000,-3.16756983,2.74144695,-1.50830748,2.41480921,0.00000000,1.42814282,-4.37704681,-5.00000214
0.93500000,-3.41682930,0.87086815,87.64221626,0.58326533,0.95350551,-0.68947213,0.45310973,-4.62856256,0.00000000,-2.99871422,2.57339743,-1.42077010,2.38174155,0.00000000,1.37533454,-4.20375357,-5.00000214
0.94000000,-3.38762252,0.87508634,87.68145034,0.58329282,0.95353376,-0.68936874,0.40716485,-4.59074641,0.00000000,-2.91253627,2.43378515,-1.35052321,2.34350824,0.00000000,1.24496209,-4.11127053,-5.00000214
0.94500000,-3.38226854,0.87167644,87.70582889,0.58329543,0.95352039,-0.68930561,0.39565584,-4.58070939,0.00000000,-2.85905690,2.30727620,-1.28351977,2.33550715,0.00000000,1.13290797,-4.03783702,-5.00000214
0.95000000,-3.37551006,0.84666253,87.71876547,0.58328510,0.95348360,-0.68932117,0.39907839,-4.57081721,0.00000000,-2.80792288,2.22338365,-1.22375455,2.32563669,0.00000000,1.06814824,-3.94240356,-5.00000214
0.95500000,-3.44941340,0.86342727,87.65638008,0.58330824,0.95343381,-0.68939935,0.49591168,-4.65526126,0.00000000,-3.05847905,2.72298818,-1.37794471,2.41143442,0.00000000,1.34401105,-4.20043142,-5.00000214
0.96000000,-3.41132912,0.83782188,87.67927680,0.58328180,0.95344149,-0.68950893,0.46194887,-4.61487327,0.00000000,-2.95654690,2.55863292,-1.33492355,2.36913857,0.00000000,1.27502766,-4.07428240,-5.00000214
0.96500000,-3.39492883,0.84652360,87.69818120,0.58333150,0.95345248,-0.68942647,0.43817653,-4.59332478,0.00000000,-2.92038378,2.49077201,-1.30875950,2.34715483,0.00000000,1.21562227,-4.05885097,-5.00000214
0.97000000,-3.38774215,0.85033908,87.72076211,0.58330454,0.95349481,-0.68940965,0.41211201,-4.58524461,0.00000000,-2.87989436,2.41976522,-1.29022380,2.34253502,0.00000000,1.16923827,-4.00584750,-5.00000214
0.97500000,-3.43924979,0.87196349,87.63430253,0.58340369,0.95346692,-0.68937612,0.51624745,-4.64277906,0.00000000,-3.10051164,2.72271124,-1.40893034,2.39516714,0.00000000,1.38994860,-4.35333140,-5.00000214
0.98000000,-3.41755258,0.85701632,87.68513372,0.58315192,0.95348371,-0.68944905,0.47685936,-4.63169812,0.00000000,-3.01898168,2.59003158,-1.35812914,2.38848870,0.00000000,1.31138004,-4.24465218,-5.00000214
0.98500000,-3.40445629,0.78466492,87.67305071,0.58335781,0.95339464,-0.68954205,0.51329075,-4.59979711,0.00000000,-2.93104523,2.45857640,-1.25897615,2.35682861,0.00000000,1.23908563,-4.14242953,-5.00000214
0.99000000,-3.40105539,0.81008624,87.72279131,0.58333847,0.95342553,-0.68948796,0.45138814,-4.59670948,0.00000000,-2.87057398,2.37237406,-1.25834075,2.35121067,0.00000000,1.19301979,-4.05192618,-5.00000214
0.99500000,-3.37612581,0.81277690,87.75841469,0.58314746,0.95342956,-0.68950907,0.40400415,-4.58172254,0.00000000,-2.79729627,2.27791933,-1.23682613,2.33828545,0.00000000,1.14089158,-3.95299320,-5.00000214
1.00000000,-3.37451013,0.91244797,87.74377384,0.58335662,0.95349126,-0.68935572,0.34098726,-4.56903340,0.00000000,-2.87026024,2.34493643,-1.33556553,2.32352795,0.00000000,1.14605636,-4.00583152,-5.00000214
1.00500000,-3.40136950,0.87898560,87.77837845,0.58326496,0.95348726,-0.68937074,0.34010473,-4.60133721,0.00000000,-2.79876784,2.26953581,-1.24320871,2.35176564,0.00000000,1.03737455,-3.93918894,-5.00000214
1.01000000,-3.44961223,0.88162608,87.70699339,0.58328321,0.95337659,-0.68941164,0.44595417,-4.65773640,0.00000000,-3.02559785,2.72371088,-1.33791025,2.41005944,0.00000000,1.23087593,-4.20589398,-5.00000214
1.01500000,-3.44712887,0.88058419,87.67376208,0.58342852,0.95340017,-0.68952911,0.44649313,-4.64811762,0.00000000,-3.03490720,2.71613145,-1.38223138,2.40029597,0.00000000,1.28918864,-4.20934167,-5.00000214
1.02000000,-3.43849569,0.82310517,87.70142139,0.58342332,0.95336353,-0.68944321,0.49017727,-4.63671617,0.00000000,-2.98814214,2.61673515,-1.26718137,2.38824148,0.00000000,1.19898558,-4.14552891,-5.00000214
1.02500000,-3.40545579,0.79990726,87.74604378,0.58316641,0.95340399,-0.68951265,0.47373600,-4.61541403,0.00000000,-2.91852345,2.46146793,-1.19916012,2.36989346,0.00000000,1.10178486,-4.00930586,-5.00000214
1.03000000,-3.45688260,0.86572005,87.70682642,0.58335250,0.95340470,-0.68943171,0.48547873,-4.66134797,0.00000000,-3.07419396,2.78299548,-1.29366098,2.40937738,0.00000000,1.17280976,-4.14807972,-5.00000214
1.03500000,-3.41330753,0.81296617,87.72661791,0.58338147,0.95333950,-0.68953073,0.48561274,-4.60471610,0.00000000,-2.96632870,2.56084394,-1.21332238,2.35845659,0.00000000,1.09893663,-4.00743787,-5.00000214
1.04000000,-3.45990515,0.79181077,87.65961518,0.58337246,0.95326627,-0.68950355,0.58811320,-4.67869067,0.00000000,-3.08363724,2.44762891,-1.28136576,2.41480868,0.00000000,1.29087006,-4.25053215,-5.00000214
1.04500000,-3.43231259,0.81681125,87.70610756,0.58344658,0.95341420,-0.68957052,0.48925502,-4.62966800,0.00000000,-2.99807943,2.70486601,-1.29300247,2.38155706,0.00000000,1.25195371,-4.21200401,-5.00000214
1.05000000,-3.39621815,0.80389035,87.74393863,0.58343818,0.95340884,-0.68956693,0.45575168,-4.58573325,0.00000000,-2.91376052,2.51658019,-1.22115030,2.33750351,0.00000000,1.12695094,-4.05834808,-5.00000214
1.05500000,-3.38625710,0.81177940,87.75243805,0.58355185,0.95340512,-0.68950157,0.44271956,-4.56401135,0.00000000,-2.87534915,2.41812340,-1.19304063,2.31286677,0.00000000,1.05137839,-3.99220646,-5.00000214
1.06000000,-3.45684996,0.84032839,87.71393172,0.58360841,0.95336351,-0.68947338,0.52302648,-4.64040941,0.00000000,-3.10080146,2.78388999,-1.30610175,2.38871474,0.00000000,1.25469561,-4.26142915,-5.00000214
1.06500000,-3.44127221,0.82130833,87.75050118,0.58330540,0.95337031,-0.68951915,0.50105405,-4.64308888,0.00000000,-3.02960290,2.65098457,-1.26390074,2.39548918,0.00000000,1.20420156,-4.14528909,-5.00000214
1.07000000,-3.43478169,0.79498313,87.77382131,0.58355720,0.95335200,-0.68940778,0.49709617,-4.61464645,0.00000000,-2.95428796,2.51509906,-1.19228610,2.36629738,0.00000000,1.11905670,-4.05535315,-5.00000214
1.07500000,-3.40733271,0.74682949,87.80257679,0.58360518,0.95331911,-0.68942646,0.50131076,-4.58085903,0.00000000,-2.86909411,2.37640021,-1.10434364,2.33087167,0.00000000,1.03196465,-3.95311136,-5.00000214
1.08000000,-3.39229064,0.74860247,87.81945195,0.58363769,0.95329741,-0.68945605,0.47695173,-4.56175411,0.00000000,-2.83044898,2.32411151,-1.08949626,2.31202019,0.00000000,0.99888307,-3.90888245,-5.00000214
1.08500000,-3.37062983,0.74236484,87.82452889,0.58373230,0.95327827,-0.68946379,0.46352623,-4.52663512,0.00000000,-2.78151351,2.22232215,-1.05593891,2.27783223,0.00000000,0.93805999,-3.83080724,-5.00000214
1.09000000,-3.39331411,0.76929161,87.86151166,0.58350067,0.95329826,-0.68943231,0.43585576,-4.56651905,0.00000000,-2.79873196,2.25086818,-1.07439942,2.31877066,0.00000000,0.93963733,-3.84789348,-5.00000214
1.09500000,-3.46802465,0.85386245,87.75468640,0.58376125,0.95335628,-0.68941070,0.52284008,-4.63894072,0.00000000,-3.15490019,2.85057982,-1.34789330,2.39106208,0.00000000,1.32608028,-4.32046007,-5.00000214
1.10000000,-3.45488021,0.80085265,87.78398866,0.58369645,0.95332445,-0.68945843,0.54653011,-4.62698798,0.00000000,-3.10352199,2.77343469,-1.27209915,2.37891148,0.00000000,1.28027298,-4.28415569,-5.00000214
1.10500000,-3.43702173,0.78888601,87.79606336,0.58374891,0.95334050,-0.68946275,0.54409035,-4.60466236,0.00000000,-3.08021851,2.74161308,-1.23385340,2.35861503,0.00000000,1.22442551,-4.24478681,-5.00000214
1.11000000,-3.42765991,0.78974485,87.79275570,0.58381406,0.95336506,-0.68948250,0.52655808,-4.59242893,0.00000000,-3.03778693,2.66636487,-1.22738156,2.34668545,0.00000000,1.20152928,-4.15211708,-5.00000214
1.11500000,-3.40462375,0.75394694,87.78828016,0.58377651,0.95331686,-0.68959402,0.52832903,-4.56421732,0.00000000,-2.96660164,2.55027881,-1.17056621,2.32147626,0.00000000,1.13958276,-4.05678784,-5.00000214
1.12000000,-3.40930237,0.76772238,87.82977987,0.58377466,0.95334483,-0.68948551,0.49044544,-4.56338898,0.00000000,-2.90449246,2.43825386,-1.13869542,2.32515465,0.00000000,1.06881328,-3.96843596,-5.00000214
1.12500000,-3.45835989,0.78858444,87.77516124,0.58387940,0.95332797,-0.68950340,0.57657266,-4.61850072,0.00000000,-3.14078298,2.84835006,-1.26945887,2.37326556,0.00000000,1.29362489,-4.29206233,-5.00000214
1.13000000,-3.45441329,0.78502542,87.78612989,0.58395905,0.95330737,-0.68946125,0.58213092,-4.60918002,0.00000000,-3.13995011,2.81548758,-1.25456010,2.36639898,0.00000000,1.27856762,-4.27250046,-5.00000214
1.13500000,-3.42851807,0.77734856,87.82917000,0.58387445,0.95333340,-0.68949630,0.52653808,-4.58574957,0.00000000,-3.02223521,2.62299360,-1.20705910,2.34211580,0.00000000,1.18459145,-4.11003020,-5.00000214
1.14000000,-3.41481876,0.76439003,87.83197876,0.58385587,0.95330620,-0.68954724,0.51041329,-4.57349625,0.00000000,-2.95813217,2.49866631,-1.16092197,2.32244270,0.00000000,1.11255636,-4.01249620,-5.00000214
1.14500000,-3.45894082,0.81674328,87.80594323,0.58392832,0.95328845,-0.68957036,0.52526855,-4.61526311,0.00000000,-3.11219962,2.81389499,-1.31388402,2.36863697,0.00000000,1.32465385,-4.29563461,-5.00000214
1.15000000,-3.43503209,0.80300324,87.82706675,0.58385970,0.95330582,-0.68961248,0.47867459,-4.59102994,0.00000000,-2.99703964,2.61548028,-1.26609726,2.34869369,0.00000000,1.23560162,-4.11772059,-5.00000214
1.15500000,-3.41940254,0.77825558,87.83983575,0.58382269,0.95330368,-0.68970739,0.45802164,-4.58066861,0.00000000,-2.91968506,2.51794924,-1.23238825,2.33489506,0.00000000,1.20342331,-4.01487397,-5.00000214
1.16000000,-3.42496846,0.77683543,87.84915372,0.58386207,0.95335511,-0.68970001,0.45866413,-4.59650961,0.00000000,-2.92250059,2.51441079,-1.20577526,2.34167802,0.00000000,1.16525144,-4.01220815,-5.00000214
1.16500000,-3.40788115,0.75969764,87.87510147,0.58381952,0.95330138,-0.68977706,0.44464468,-4.57316950,0.00000000,-2.86801024,2.40663305,-1.13963676,2.32455903,0.00000000,1.04895348,-3.91515543,-5.00000214
1.17000000,-3.46159802,0.87242002,87.85228636,0.58390352,0.95335476,-0.68963878,0.45383075,-4.63025406,0.00000000,-3.12254390,2.80404501,-1.32518065,2.37393754,0.00000000,1.22066005,-4.22221706,-5.00000214
1.17500000,-3.43780845,0.86317761,87.87634828,0.58381165,0.95334308,-0.68965455,0.40666889,-4.60194224,0.00000000,-3.01145738,2.62082573,-1.26638149,2.35142818,0.00000000,1.10976145,-4.05858993,-5.00000214
1.18000000,-3.41954661,0.94133275,87.88296153,0.58384427,0.95348706,-0.68959144,0.32402021,-4.58797945,0.00000000,-3.01617321,2.59246843,-1.32398637,2.33151906,0.00000000,1.05249748,-4.02216453,-5.00000214
1.18500000,-3.40799166,1.00949330,87.88584234,0.58390174,0.95359907,-0.68957255,0.26137142,-4.57547765,0.00000000,-3.04925509,2.67131841,-1.41356681,2.32300843,0.00000000,1.08813083,-4.05777183,-5.00000214
1.19000000,-3.39315021,0.85381761,87.91561989,0.58375844,0.95342319,-0.68980055,0.35491102,-4.56098669,0.00000000,-2.92305157,2.60350102,-1.26381348,2.31114137,0.00000000,1.10058246,-4.01449866,-5.00000214
1.19500000,-3.45045272,0.83680545,87.86767861,0.58392519,0.95339401,-0.68964917,0.49813008,-4.61431911,0.00000000,-3.14716586,2.86790866,-1.26339281,2.35891902,0.00000000,1.16944532,-4.17005875,-5.00000214
1.20000000,-3.43083146,0.82027906,87.88383337,0.58389231,0.95340264,-0.68964368,0.47201876,-4.59285088,0.00000000,-3.04544350,2.67697966,-1.19851838,2.34041461,0.00000000,1.07241453,-4.01903326,-5.00000214
1.20500000,-3.41673806,0.80531515,87.92427002,0.58388231,0.95337492,-0.68968139,0.43175672,-4.57376778,0.00000000,-2.94545622,2.53952875,-1.15902711,2.32193753,0.00000000,1.01258868,-3.88357363,-5.00000214
1.21000000,-3.40806707,0.81699122,87.94278864,0.58390807,0.95333819,-0.68968762,0.40562994,-4.56197706,0.00000000,-2.93583584,2.54644074,-1.16830171,2.30891537,0.00000000,1.00308607,-3.91142395,-5.00000214
1.21500000,-3.41711996,0.88538373,87.95413457,0.58394337,0.95342143,-0.68960516,0.35414806,-4.57122962,0.00000000,-2.98500016,2.59147749,-1.24171166,2.32109338,0.00000000,1.01748968,-3.93947956,-5.00000214
1.22000000,-3.41790060,0.78754197,87.95263603,0.58402216,0.95327035,-0.68972932,0.43466453,-4.55985760,0.00000000,-2.94033709,2.55910606,-1.15546877,2.31945913,0.00000000,1.04675103,-3.91012898,-5.00000214
1.22500000,-3.44999568,0.78672024,87.93546801,0.58390221,0.95324247,-0.68986920,0.47456600,-4.60075711,0.00000000,-3.03637512,2.75398293,-1.21852540,2.35652245,0.00000000,1.16990530,-4.11129302,-5.00000214
1.23000000,-3.43813295,0.76647342,87.95605348,0.58404578,0.95324420,-0.68972652,0.48152294,-4.57823756,0.00000000,-2.98499897,2.58136129,-1.13216462,2.32615024,0.00000000,1.05559520,-3.99526863,-5.00000214
1.23500000,-3.45816349,0.87665653,87.93325602,0.58414096,0.95338040,-0.68970645,0.41787167,-4.60189871,0.00000000,-3.10142813,2.73425044,-1.27946963,2.35112851,0.00000000,1.12066930,-4.10678180,-5.00000214
1.24000000,-3.42944644,0.84220660,87.97035110,0.58407213,0.95338497,-0.68975904,0.39100744,-4.57048709,0.00000000,-2.99184294,2.62494932,-1.21990338,2.31937140,0.00000000,1.06076729,-4.01090760,-5.00000214
1.24500000,-3.41197789,0.81317393,87.98317515,0.58404933,0.95336785,-0.68982675,0.39234423,-4.55322377,0.00000000,-2.94267016,2.55368913,-1.17107249,2.30670856,0.00000000,1.01523295,-3.94013635,-5.00000214
1.25000000,-3.40756022,0.81614331,87.99456596,0.58413719,0.95333548,-0.68981777,0.38685376,-4.53946331,0.00000000,-2.93904651,2.54898567,-1.16725800,2.29788245,0.00000000,1.00511700,-3.91434586,-5.00000214
1.25500000,-3.46084665,0.75873479,87.91953004,0.58419070,0.95319961,-0.68997452,0.56246697,-4.59632834,0.00000000,-3.17365739,2.88745853,-1.23941668,2.34565833,0.00000000,1.26528268,-4.26499735,-5.00000214
1.26000000,-3.45718446,0.87135893,87.93097888,0.58420544,0.95337173,-0.68980195,0.46483001,-4.59621379,0.00000000,-3.20061984,2.85403308,-1.31983558,2.34841608,0.00000000,1.20250071,-4.23318634,-5.00000214
1.26500000,-3.43580510,0.79799274,87.96680296,0.58409070,0.95333885,-0.68996255,0.45012524,-4.57451715,0.00000000,-3.03144564,2.66328824,-1.22190369,2.33147010,0.00000000,1.13201531,-4.03893310,-5.00000214
1.27000000,-3.40935692,0.76052147,88.01183879,0.58417933,0.95332442,-0.68990606,0.44300514,-4.53626625,0.00000000,-2.94966673,2.55431186,-1.13112203,2.29187348,0.00000000,1.03023015,-3.97279721,-5.00000214
1.27500000,-3.45850333,0.79761236,87.96310912,0.58424295,0.95332212,-0.68992556,0.50349238,-4.58917739,0.00000000,-3.15334904,2.90622447,-1.27173896,2.34980605,0.00000000,1.24371390,-4.20673686,-5.00000214
1.28000000,-3.43501349,0.75937482,87.96117182,0.58426602,0.95329105,-0.69000464,0.50600936,-4.56141723,0.00000000,-3.07099720,2.75038419,-1.20333036,2.32078637,0.00000000,1.16590459,-4.08093494,-5.00000214
1.28500000,-3.46695810,0.80053354,87.93411974,0.58425642,0.95328851,-0.68992767,0.53088749,-4.60119905,0.00000000,-3.19872480,2.93132724,-1.26001324,2.35310435,0.00000000,1.21029999,-4.18003937,-5.00000214
1.29000000,-3.46442660,0.80415505,87.95863162,0.58422257,0.95326591,-0.68993959,0.48892188,-4.59715074,0.00000000,-3.12345930,2.83158854,-1.25278527,2.35820221,0.00000000,1.17444251,-4.07984241,-5.00000214
1.29500000,-3.47228142,0.77693554,87.93537743,0.58428660,0.95321063,-0.69000152,0.55084782,-4.60455170,0.00000000,-3.20693644,2.94486290,-1.24811451,2.36229192,0.00000000,1.22947893,-4.21198167,-5.00000214
1.30000000,-3.48440655,0.78688078,87.91609180,0.58430983,0.95323095,-0.69007533,0.53650926,-4.61821376,0.00000000,-3.20023368,2.94360375,-1.31472623,2.38734025,0.00000000,1.32192326,-4.08723308,-5.00000214
1.30500000,-3.46515871,0.80004954,87.95295018,0.58434083,0.95322868,-0.68998674,0.49706613,-4.59356245,0.00000000,-3.14564108,2.82342431,-1.25229924,2.34890157,0.00000000,1.18292427,-4.06519649,-5.00000214
1.31000000,-3.45297658,0.78347762,87.97018274,0.58426253,0.95324521,-0.68996673,0.48683915,-4.58057694,0.00000000,-3.07966130,2.68498148,-1.17753104,2.34280266,0.00000000,1.07897456,-3.95171605,-5.00000214
1.31500000,-3.43458158,0.78404114,87.99900702,0.58432422,0.95324814,-0.68995537,0.45153397,-4.55326735,0.00000000,-3.01806924,2.62175159,-1.16428106,2.31104842,0.00000000,1.04531672,-3.87317737,-5.00000214
1.32000000,-3.47647179,0.80613046,87.92672676,0.58440330,0.95325394,-0.68994851,0.53973842,-4.60081339,0.00000000,-3.23389561,2.93950699,-1.27616121,2.35809719,0.00000000,1.23151475,-4.15104168,-5.00000214
1.32500000,-3.48073717,0.87629831,87.92972262,0.58444609,0.95335607,-0.68995780,0.47174481,-4.60691652,0.00000000,-3.26708750,3.01554726,-1.37270641,2.36718511,0.00000000,1.26989891,-4.18768977,-5.00000214
1.33000000,-3.47070802,0.77406445,87.93839809,0.58448050,0.95324983,-0.69001110,0.52729323,-4.59040185,0.00000000,-3.14057553,2.83121231,-1.23234728,2.35253045,0.00000000,1.19194226,-4.04878567,-5.00000214
1.33500000,-3.44948641,0.73893866,87.98722981,0.58439781,0.95322916,-0.69013484,0.51643115,-4.56604856,0.00000000,-3.07238670,2.69611786,-1.16735868,2.33030321,0.00000000,1.12342787,-3.92898303,-5.00000214
1.34000000,-3.49193766,0.79528611,87.94440474,0.58450702,0.95327468,-0.69005386,0.55282212,-4.60835949,0.00000000,-3.25499818,2.99846174,-1.29438470,2.37515419,0.00000000,1.28385617,-4.14988516,-5.00000214
1.34500000,-3.45886197,0.78326281,87.97156053,0.58449862,0.95327899,-0.69005191,0.50104874,-4.57014229,0.00000000,-3.12628320,2.81201547,-1.24093276,2.33360589,0.00000000,1.19220149,-3.99894845,-5.00000214
1.35000000,-3.45263226,0.92371418,87.96497232,0.58453371,0.95350491,-0.68994175,0.38996249,-4.56992325,0.00000000,-3.20313468,2.83263986,-1.36604920,2.33246696,0.00000000,1.14171943,-4.02326133,-5.00000214
1.35500000,-3.46793967,0.86368871,87.96015070,0.58459310,0.95342363,-0.69012108,0.40623442,-4.58090664,0.00000000,-3.13569605,2.95685314,-1.39027540,2.34324936,0.00000000,1.30857042,-4.19346116,-5.00000214
1.36000000,-3.44462554,0.84475830,87.99600607,0.58457110,0.95339134,-0.69011123,0.38885140,-4.55443925,0.00000000,-3.05777835,2.77185645,-1.30788997,2.31291981,0.00000000,1.18401780,-4.10282800,-5.00000214
1.36500000,-3.44785435,0.80959592,88.01613431,0.58450844,0.95335213,-0.69015648,0.39763420,-4.55715154,0.00000000,-2.99150754,2.61963807,-1.25296551,2.32593774,0.00000000,1.14344200,-3.96081260,-5.00000214
1.37000000,-3.48674867,0.80186701,87.97222008,0.58464185,0.95327132,-0.69019536,0.48935383,-4.59100379,0.00000000,-3.17597505,2.95258819,-1.33644280,2.35246661,0.00000000,1.34229549,-4.25305134,-5.00000214
1.37500000,-3.46304390,0.75589056,87.98618253,0.58458639,0.95323457,-0.69033671,0.46840017,-4.56703018,0.00000000,-3.05154074,2.76258055,-1.26193833,2.32624394,0.00000000,1.25726801,-4.10604298,-5.00000214
1.38000000,-3.42719514,0.68793386,87.99962386,0.58470079,0.95321015,-0.69028009,0.48589427,-4.51601947,0.00000000,-2.92577112,2.55355588,-1.12325214,2.27961543,0.00000000,1.11848302,-3.94957812,-5.00000214
1.38500000,-3.41255232,0.70925418,88.06859598,0.58458258,0.95324308,-0.69026234,0.42292926,-4.51036385,0.00000000,-2.87445915,2.48266637,-1.09247405,2.26958427,0.00000000,1.02639699,-3.87325013,-5.00000214
1.39000000,-3.40437287,0.71048425,88.06809944,0.58473366,0.95324377,-0.69024637,0.41214042,-4.48889846,0.00000000,-2.84564941,2.44339507,-1.07042614,2.24897741,0.00000000,0.98380025,-3.81993040,-5.00000214
1.39500000,-3.47004295,0.73917126,88.00566647,0.58484241,0.95322648,-0.69027050,0.51254377,-4.55693181,0.00000000,-3.11832141,2.93942866,-1.22015136,2.31483771,0.00000000,1.24469495,-4.18062612,-5.00000214
1.40000000,-3.45166082,0.71261965,88.03419054,0.58476567,0.95321856,-0.69033023,0.48120854,-4.53686732,0.00000000,-2.99786666,2.71000150,-1.15369714,2.29626807,0.00000000,1.14466993,-4.01706155,-5.00000214
1.40500000,-3.43115227,0.66272736,88.07704591,0.58482702,0.95321815,-0.69032636,0.47523286,-4.50485015,0.00000000,-2.88746199,2.53456446,-1.05357986,2.26710644,0.00000000,1.04523923,-3.87555642,-5.00000214
1.41000000,-3.43956742,0.64812634,88.06844086,0.58483565,0.95321163,-0.69050551,0.43955486,-4.51691949,0.00000000,-2.81194597,2.50922285,-1.06035713,2.27817996,0.00000000,1.04907767,-3.82399519,-5.00000214
1.41500000,-3.47334359,0.72023134,88.00172939,0.58497407,0.95328371,-0.69038394,0.51111000,-4.55332591,0.00000000,-3.09687240,2.91826289,-1.26694601,2.31245417,0.00000000,1.35277061,-4.30394405,-5.00000214
1.42000000,-3.45131517,0.69345811,88.02092518,0.58495311,0.95326558,-0.69039090,0.49528789,-4.52822240,0.00000000,-2.99049534,2.71669510,-1.18249269,2.28705049,0.00000000,1.23546766,-4.14854726,-5.00000214
1.42500000,-3.43506846,0.67200162,88.03562443,0.58494852,0.95323578,-0.69044309,0.47343695,-4.50403950,0.00000000,-2.89837796,2.56031700,-1.12167634,2.26676008,0.00000000,1.14474202,-4.01527530,-5.00000214
1.43000000,-3.42876769,0.66655301,88.05278282,0.58496114,0.95325172,-0.69049231,0.43633095,-4.49686074,0.00000000,-2.83227247,2.51673493,-1.11614580,2.25927693,0.00000000,1.13283946,-3.90983619,-5.00000214
1.43500000,-3.41418889,0.66174170,88.06786644,0.58496062,0.95324218,-0.69054443,0.40706788,-4.48132901,0.00000000,-2.77516886,2.46884041,-1.09479869,2.24295449,0.00000000,1.08758074,-3.84066704,-5.00000214
1.44000000,-3.41763724,0.72696102,88.06100147,0.58501673,0.95331795,-0.69053471,0.36778143,-4.48686504,0.00000000,-2.84113291,2.53352033,-1.17216208,2.25009600,0.00000000,1.09720876,-3.89336932,-5.00000214
1.44500000,-3.47433248,0.69701588,87.99932732,0.58512545,0.95322596,-0.69054151,0.51627082,-4.54035085,0.00000000,-3.06717786,2.87304602,-1.26298947,2.30726599,0.00000000,1.36695642,-4.22170412,-5.00000214
1.45000000,-3.44658679,0.69614010,88.02496309,0.58503353,0.95323010,-0.69051262,0.46692047,-4.51559604,0.00000000,-2.96523340,2.72352996,-1.21632992,2.28286588,0.00000000,1.27363897,-4.07200709,-5.00000214
1.45500000,-3.47264025,0.69431501,88.01033322,0.58505923,0.95319013,-0.69049378,0.52838063,-4.54051986,0.00000000,-3.08833958,2.93255754,-1.22225041,2.30486988,0.00000000,1.30062176,-4.21312706,-5.00000214
1.46000000,-3.47581790,0.71926061,87.98916026,0.58510354,0.95320620,-0.69055266,0.49962166,-4.54662399,0.00000000,-3.08775859,2.93468118,-1.27939139,2.31470855,0.00000000,1.34205799,-4.17680900,-5.00000214
1.46500000,-3.44600269,0.69824903,88.01741837,0.58512077,0.95320552,-0.69061997,0.46284756,-4.51057888,0.00000000,-2.97710604,2.73736451,-1.20747495,2.27454611,0.00000000,1.22553550,-4.04469722,-5.00000214
1.47000000,-3.45942235,0.70762317,88.03844509,0.58514564,0.95316654,-0.69059720,0.47576852,-4.52361356,0.00000000,-3.04209843,2.91030662,-1.22820001,2.28489496,0.00000000,1.27787640,-4.23478408,-5.00000214
1.47500000,-3.44832667,0.67432069,88.03505955,0.58514845,0.95314749,-0.69069127,0.46904172,-4.50767400,0.00000000,-2.94478880,2.71671072,-1.16543100,2.27049545,0.00000000,1.19426629,-4.08311657,-5.00000214
1.48000000,-3.48525943,0.68135989,87.97308258,0.58520801,0.95308502,-0.69091918,0.51255992,-4.54780047,0.00000000,-3.07210797,2.96816284,-1.28902651,2.30894561,0.00000000,1.39742318,-4.23915175,-5.00000214
1.48500000,-3.47521814,0.78954024,87.98707193,0.58530672,0.95322511,-0.69070010,0.42616130,-4.53164488,0.00000000,-3.11533592,2.96074809,-1.36875965,2.29027623,0.00000000,1.34804012,-4.24924677,-5.00000214
1.49000000,-3.46001423,0.84878101,88.01975935,0.58531584,0.95337371,-0.69061589,0.34331360,-4.51674259,0.00000000,-3.07923711,2.86829292,-1.38769744,2.27583215,0.00000000,1.26539312,-4.19096557,-5.00000214
1.49500000,-3.42377185,0.74509311,88.03111834,0.58534858,0.95329162,-0.69083621,0.36042031,-4.46959827,0.00000000,-2.90994171,2.70268409,-1.25867750,2.23152740,0.00000000,1.19357673,-4.05134263,-5.00000214
1.50000000,-3.42226717,0.72450218,88.07919564,0.58534401,0.95330144,-0.69084373,0.33642002,-4.46644755,0.00000000,-2.83275066,2.61955628,-1.20402451,2.22969807,0.00000000,1.13679956,-3.97192426,-5.00000214
1.50500000,-3.43021311,0.70641423,88.09036424,0.58530602,0.95328290,-0.69079615,0.34181146,-4.47490387,0.00000000,-2.77666619,2.49453453,-1.14375233,2.24185084,0.00000000,1.06613605,-3.87454284,-5.00000214
1.51000000,-3.49271424,0.69177885,88.02235223,0.58543376,0.95318411,-0.69085514,0.49552146,-4.53609383,0.00000000,-3.06315160,2.93356447,-1.25269694,2.30072380,0.00000000,1.33127576,-4.22844938,-5.00000214
1.51500000,-3.46629962,0.69738473,88.05794488,0.58547020,0.95321929,-0.69082573,0.43508581,-4.50276760,0.00000000,-2.95836924,2.76839969,-1.21392970,2.26417389,0.00000000,1.23793387,-4.10855123,-5.00000214
1.52000000,-3.44794940,0.65826730,88.06780836,0.58548844,0.95322771,-0.69087224,0.43116234,-4.48008246,0.00000000,-2.87973879,2.64582001,-1.14561442,2.24706152,0.00000000,1.16392278,-4.00643900,-5.00000214
1.52500000,-3.47382750,0.67034777,88.05296777,0.58550784,0.95322152,-0.69090810,0.47777390,-4.51252776,0.00000000,-3.02234302,2.90758063,-1.21130920,2.27968898,0.00000000,1.28504955,-4.18610508,-5.00000214
1.53000000,-3.44660363,0.65090000,88.06356239,0.58558361,0.95319879,-0.69093598,0.46075128,-4.47205862,0.00000000,-2.93332392,2.73422649,-1.14149587,2.23751233,0.00000000,1.17380016,-4.07631370,-5.00000214
1.53500000,-3.49149758,0.66218402,88.04189988,0.58558361,0.95318491,-0.69101000,0.49574066,-4.52213477,0.00000000,-3.03174584,2.91713126,-1.20662824,2.28640284,0.00000000,1.28671732,-4.23214542,-5.00000214
1.54000000,-3.48622607,0.64023657,88.04895542,0.58562259,0.95315497,-0.69104721,0.48553419,-4.50969163,0.00000000,-2.95600907,2.77359167,-1.15431790,2.27941822,0.00000000,1.22545272,-4.09390250,-5.00000214
1.54500000,-3.46102607,0.64209190,88.07782454,0.58566344,0.95318815,-0.69108998,0.43415667,-4.47770506,0.00000000,-2.87476951,2.68476883,-1.14533363,2.24464302,0.00000000,1.18413928,-3.98464202,-5.00000214
1.55000000,-3.48865832,0.63629204,88.02319588,0.58578641,0.95318172,-0.69103991,0.52828445,-4.50537727,0.00000000,-3.04721270,2.94247457,-1.19985887,2.27180755,0.00000000,1.31463876,-4.23393638,-5.00000214
1.55500000,-3.47124363,0.74511473,88.05841501,0.58576736,0.95335308,-0.69092522,0.41553267,-4.49241454,0.00000000,-3.06133874,2.88461689,-1.27811311,2.25938105,0.00000000,1.24780785,-4.18762454,-5.00000214
1.56000000,-3.44703014,0.67896004,88.08693256,0.58577597,0.95325974,-0.69105612,0.40623232,-4.45936426,0.00000000,-2.91410808,2.70816478,-1.18471231,2.22745559,0.00000000,1.18296610,-4.04325760,-5.00000214
1.56500000,-3.43921720,0.62869794,88.10067931,0.58577229,0.95314002,-0.69111416,0.43068458,-4.44091274,0.00000000,-2.84673969,2.58457364,-1.08268902,2.21176994,0.00000000,1.08593215,-3.99478721,-5.00000214
1.57000000,-3.43079726,0.61780947,88.10811522,0.58577176,0.95316007,-0.69115039,0.40863784,-4.43323567,0.00000000,-2.77471912,2.50041426,-1.05619537,2.20076959,0.00000000,1.04458862,-3.88681916,-5.00000214
1.57500000,-3.41491890,0.62898491,88.12685784,0.58583344,0.95318939,-0.69118298,0.36038455,-4.41200580,0.00000000,-2.72564085,2.49256745,-1.05861197,2.17389437,0.00000000,1.01726519,-3.85837272,-5.00000214
1.58000000,-3.42492642,0.65280453,88.11582126,0.58588045,0.95325967,-0.69117913,0.36189371,-4.42468979,0.00000000,-2.78692046,2.55414781,-1.09770367,2.18993629,0.00000000,1.04381118,-3.89505708,-5.00000214
1.58500000,-3.41128388,0.65642937,88.10481730,0.58588374,0.95329055,-0.69122233,0.33722888,-4.41305157,0.00000000,-2.74322000,2.53090746,-1.10275591,2.18019580,0.00000000,1.03318296,-3.85686374,-5.00000214
1.59000000,-3.39768942,0.64547062,88.11010639,0.58596131,0.95324320,-0.69124382,0.33691267,-4.38759309,0.00000000,-2.71872241,2.47674530,-1.07393364,2.15659379,0.00000000,1.00022955,-3.82791066,-5.00000214
1.59500000,-3.48287173,0.70020965,88.01816285,0.58603692,0.95320658,-0.69126123,0.44099734,-4.48507500,0.00000000,-3.03151126,2.92074925,-1.27570038,2.25313764,0.00000000,1.30265763,-4.17591972,-5.00000214
1.60000000,-3.44195766,0.67941983,88.05041544,0.58599559,0.95313145,-0.69131012,0.39952648,-4.44008730,0.00000000,-2.91035761,2.74127480,-1.20342405,2.20129805,0.00000000,1.18737977,-4.06234065,-5.00000214
1.60500000,-3.45262771,0.79590009,88.04403866,0.58606908,0.95328515,-0.69119612,0.31527213,-4.45137860,0.00000000,-2.98892784,2.79424444,-1.31485333,2.21596591,0.00000000,1.17218065,-4.10595172,-5.00000214
1.61000000,-3.42737597,0.74253657,88.06419429,0.58610346,0.95325757,-0.69134031,0.28985626,-4.42143866,0.00000000,-2.84911798,2.72801272,-1.27590621,2.17881926,0.00000000,1.17967710,-4.02557428,-5.00000214
1.61500000,-3.43219219,0.71744329,88.03427116,0.58612313,0.95327601,-0.69140675,0.30522487,-4.42386291,0.00000000,-2.81094638,2.64607409,-1.25607790,2.19825817,0.00000000,1.17735585,-3.89368864,-5.00000214
1.62000000,-3.41823440,0.71559151,88.04482075,0.58614583,0.95325136,-0.69138425,0.29146122,-4.40793429,0.00000000,-2.76722301,2.55999719,-1.21721374,2.17476820,0.00000000,1.10182068,-3.84414241,-5.00000214
1.62500000,-3.48092835,0.72023298,87.97013964,0.58627351,0.95320208,-0.69139271,0.40943136,-4.46944336,0.00000000,-3.00749891,2.95033676,-1.31825185,2.23778444,0.00000000,1.31769476,-4.18592088,-5.00000214
1.63000000,-3.48397673,0.78330949,87.97720658,0.58629433,0.95332043,-0.69142305,0.34816736,-4.47737509,0.00000000,-3.05214451,3.02917837,-1.41016441,2.24409285,0.00000000,1.35999340,-4.21921463,-5.00000214
1.63500000,-3.47822662,0.75364302,87.97846031,0.58638374,0.95330980,-0.69140410,0.36012518,-4.46570691,0.00000000,-2.99508408,2.91253103,-1.35607504,2.23537788,0.00000000,1.31088654,-4.10267349,-5.00000214
1.64000000,-3.43688271,0.72679366,88.00384212,0.58640644,0.95325253,-0.69149064,0.33922871,-4.41545933,0.00000000,-2.91047380,2.77857480,-1.29508133,2.17778590,0.00000000,1.22356240,-4.02751689,-5.00000214
1.64500000,-3.43541355,0.71433322,88.05576085,0.58638383,0.95319189,-0.69147709,0.30698090,-4.40942828,0.00000000,-2.82004227,2.65190240,-1.24595887,2.17739585,0.00000000,1.15741025,-3.93994620,-5.00000214
1.65000000,-3.41588043,0.69763924,88.06632770,0.58646273,0.95315569,-0.69149276,0.29501674,-4.37674138,0.00000000,-2.75753959,2.54801673,-1.20159869,2.14601060,0.00000000,1.09991703,-3.88946081,-5.00000214
1.65500000,-3.46856898,0.71459800,87.98773745,0.58656072,0.95317931,-0.69156939,0.37358251,-4.43515610,0.00000000,-2.96308089,2.93719034,-1.36645554,2.20539160,0.00000000,1.38926611,-4.26240804,-5.00000214
1.66000000,-3.44878610,0.66899514,88.02904194,0.58653894,0.95320018,-0.69158055,0.36021255,-4.41561402,0.00000000,-2.84577971,2.73939001,-1.26263961,2.18910354,0.00000000,1.27361098,-4.08854477,-5.00000214
1.66500000,-3.46007385,0.68817190,88.00437812,0.58671689,0.95322313,-0.69154973,0.40648280,-4.41731281,0.00000000,-2.99405977,2.96590168,-1.31580176,2.18914150,0.00000000,1.35279623,-4.25274258,-5.00000214
1.67000000,-3.44233478,0.63699571,88.02926840,0.58667885,0.95315539,-0.69163226,0.42362037,-4.39795209,0.00000000,-2.91516412,2.80297547,-1.21405210,2.16531280,0.00000000,1.25141480,-4.13434374,-5.00000214
1.67500000,-3.43163745,0.60030036,88.03953865,0.58670466,0.95310559,-0.69169760,0.42967920,-4.37864842,0.00000000,-2.84446442,2.68858675,-1.14899139,2.15021973,0.00000000,1.18969213,-4.02361038,-5.00000214
1.68000000,-3.41423061,0.60628851,88.04738459,0.58673944,0.95310762,-0.69171586,0.38745930,-4.35455882,0.00000000,-2.78042894,2.61185667,-1.13480114,2.12448359,0.00000000,1.14147207,-3.94302272,-5.00000214
1.68500000,-3.41363906,0.73736379,88.02541108,0.58680625,0.95323631,-0.69158614,0.31289226,-4.36011024,0.00000000,-2.90300494,2.71542828,-1.27376306,2.12376884,0.00000000,1.14298788,-4.03399663,-5.00000214
1.69000000,-3.43662391,0.75341086,88.01725271,0.58688560,0.95323895,-0.69167849,0.29110916,-4.38260761,0.00000000,-2.91782125,2.86619737,-1.35566756,2.14847153,0.00000000,1.26123274,-4.10882390,-5.00000214
1.69500000,-3.46226443,0.60285191,87.99160213,0.58693158,0.95302239,-0.69169026,0.51290945,-4.40783238,0.00000000,-3.03217039,2.99032726,-1.22854776,2.17042156,0.00000000,1.35141534,-4.25774046,-5.00000214
1.70000000,-3.44844242,0.56727570,88.02414465,0.58691517,0.95302250,-0.69173867,0.50609823,-4.38878545,0.00000000,-2.94101818,2.81014424,-1.14781815,2.15238748,0.00000000,1.26278594,-4.11302232,-5.00000214
1.70500000,-3.43894850,0.55656284,88.05722696,0.58692210,0.95299723,-0.69171693,0.47143292,-4.36827636,0.00000000,-2.84012867,2.64952675,-1.08120832,2.13325104,0.00000000,1.15398225,-3.96878325,-5.00000214
1.71000000,-3.43155573,0.54774831,88.06050818,0.58687492,0.95302318,-0.69177866,0.44394742,-4.36633736,0.00000000,-2.76882507,2.59666655,-1.06327116,2.13006829,0.00000000,1.11422128,-3.88921593,-5.00000214
1.71500000,-3.47169810,0.59183361,87.98385133,0.58704176,0.95306071,-0.69174039,0.52886323,-4.40499147,0.00000000,-3.04172020,3.04157079,-1.21780456,2.16635120,0.00000000,1.34056500,-4.27559909,-5.00000214
1.72000000,-3.31438979,0.51229919,88.02461979,0.58703407,0.95302977,-0.69180966,0.51944267,-4.22935408,0.00000000,-2.88271708,2.79051462,-1.09076383,1.99812648,0.00000000,1.22735374,-4.06892422,-5.00000214
1.72500000,-3.42475192,0.57827554,88.04073140,0.58715953,0.95307367,-0.69173229,0.45180113,-4.34631279,0.00000000,-2.86874790,2.73942508,-1.09323319,2.11079492,0.00000000,1.11105354,-4.06544295,-5.00000214
1.73000000,-3.47113071,0.55938822,88.01671033,0.58716439,0.95297626,-0.69185997,0.53674318,-4.39756696,0.00000000,-3.01019140,2.98784144,-1.16907869,2.15974333,0.00000000,1.31287193,-4.28491048,-5.00000214
1.73500000,-3.46057691,0.55619209,88.03566400,0.58721282,0.95292956,-0.69183362,0.50942006,-4.37587053,0.00000000,-2.94123495,2.88445029,-1.14427799,2.13515061,0.00000000,1.27502479,-4.21104282,-5.00000214
1.74000000,-3.45151778,0.54413925,88.02825163,0.58720940,0.95296281,-0.69193231,0.46747515,-4.36469437,0.00000000,-2.83183636,2.73576098,-1.11619195,2.12863304,0.00000000,1.21065346,-4.06384928,-5.00000214
1.74500000,-3.42552872,0.52194840,88.08028324,0.58721655,0.95301526,-0.69192337,0.43444882,-4.33411877,0.00000000,-2.74034142,2.60539508,-1.05890204,2.09934916,0.00000000,1.13626904,-3.93329262,-5.00000214
1.75000000,-3.47073542,0.56417929,87.99439406,0.58737134,0.95305896,-0.69190978,0.51627328,-4.38285459,0.00000000,-2.98996824,2.99265224,-1.19656727,2.14953937,0.00000000,1.32824741,-4.16804741,-5.00000214
1.75500000,-3.42400089,0.52873550,88.03464031,0.58738782,0.95302768,-0.69196239,0.48889137,-4.32927686,0.00000000,-2.87100164,2.81874573,-1.10510988,2.08890941,0.00000000,1.21580356,-4.11102234,-5.00000214
1.76000000,-3.42224423,0.49314987,88.04414151,0.58734157,0.95297403,-0.69202191,0.49366803,-4.32535191,0.00000000,-2.79525462,2.68910491,-1.03914682,2.09035882,0.00000000,1.15323090,-4.01525654,-5.00000214
1.76500000,-3.42525638,0.49890768,88.06382696,0.58737503,0.95297588,-0.69200085,0.45964927,-4.32380846,0.00000000,-2.73034095,2.59160433,-1.02455328,2.08648171,0.00000000,1.11203712,-3.93625215,-5.00000214
1.77000000,-3.39648209,0.49108895,88.08476184,0.58745149,0.95295837,-0.69213858,0.42147804,-4.28681828,0.00000000,-2.66946335,2.54671843,-1.01069216,2.04682552,0.00000000,1.06944886,-3.89754959,-5.00000214
1.77500000,-3.38144383,0.49639109,88.09875443,0.58744155,0.95299188,-0.69214974,0.39024115,-4.27354716,0.00000000,-2.62897091,2.49721934,-0.99363600,2.03197919,0.00000000,1.02983460,-3.84894847,-5.00000214
1.78000000,-3.46081811,0.53247504,88.02071725,0.58757352,0.95299640,-0.69208849,0.51505270,-4.35947246,0.00000000,-2.94833006,2.96005341,-1.13104394,2.11824086,0.00000000,1.25289370,-4.24387839,-5.00000214
1.78500000,-3.42620753,0.51007125,88.02689003,0.58762383,0.95297791,-0.69214087,0.48530082,-4.31453918,0.00000000,-2.83937882,2.78841764,-1.06538395,2.07567690,0.00000000,1.15369422,-4.10296492,-5.00000214
1.79000000,-3.45452580,0.49017279,88.01499673,0.58762452,0.95293121,-0.69214186,0.56698944,-4.34398108,0.00000000,-2.96842684,2.99308377,-1.08278561,2.10616311,0.00000000,1.24385604,-4.25111087,-5.00000214
1.79500000,-3.43174855,0.43477085,88.03624919,0.58755852,0.95288206,-0.69229358,0.55091357,-4.32011253,0.00000000,-2.83091344,2.80156640,-0.99374352,2.07741669,0.00000000,1.15546303,-4.10513694,-5.00000214
1.80000000,-3.41465313,0.41126872,88.06350340,0.58763837,0.95289577,-0.69223197,0.52577935,-4.29306231,0.00000000,-2.72068773,2.62158725,-0.96063776,2.05972101,0.00000000,1.13935285,-3.92800671,-5.00000214
1.80500000,-3.40034230,0.43111593,88.08573071,0.58767636,0.95290383,-0.69230027,0.47471061,-4.27866624,0.00000000,-2.68163722,2.58382314,-0.96941317,2.04146289,0.00000000,1.09903926,-3.91302233,-5.00000214
1.81000000,-3.39486345,0.42791932,88.09905399,0.58762286,0.95290000,-0.69235788,0.44880046,-4.27634727,0.00000000,-2.62761982,2.50466664,-0.94912476,2.03905777,0.00000000,1.05975909,-3.84738272,-5.00000214
1.81500000,-3.46032386,0.50993416,88.01892060,0.58774980,0.95292535,-0.69239158,0.51332913,-4.34454423,0.00000000,-2.93904610,2.99334817,-1.16661505,2.11030221,0.00000000,1.33513447,-4.24389514,-5.00000214
1.82000000,-3.44698190,0.50789794,88.03182720,0.58775796,0.95293471,-0.69240050,0.47275385,-4.32586071,0.00000000,-2.84873268,2.84024181,-1.13176434,2.08695166,0.00000000,1.26226480,-4.12208234,-5.00000214
1.82500000,-3.41627943,0.49602184,88.05731080,0.58773240,0.95294376,-0.69247858,0.42542948,-4.29178214,0.00000000,-2.74484215,2.70632622,-1.10218126,2.05771377,0.00000000,1.20230772,-3.99321483,-5.00000214
1.83000000,-3.42740919,0.51241978,88.05208031,0.58779776,0.95299680,-0.69249125,0.40713800,-4.30547357,0.00000000,-2.74408828,2.71848963,-1.11519012,2.06904961,0.00000000,1.19110192,-4.00574682,-5.00000214
1.83500000,-3.44407471,0.52099081,88.02620002,0.58790053,0.95300352,-0.69255793,0.46111723,-4.32703982,0.00000000,-2.89711768,2.99425696,-1.15747370,2.08375842,0.00000000,1.25874207,-4.11355980,-5.00000214
1.84000000,-3.43482628,0.48384503,88.04404446,0.58783496,0.95295512,-0.69259107,0.46551649,-4.31273376,0.00000000,-2.81163390,2.82113017,-1.07008004,2.07040002,0.00000000,1.15532636,-3.98715941,-5.00000214
1.84500000,-3.42469635,0.47744319,88.06456893,0.58780396,0.95297110,-0.69257677,0.44110631,-4.29664940,0.00000000,-2.74114670,2.68910591,-1.01573710,2.05938493,0.00000000,1.06075957,-3.86335622,-5.00000214
1.85000000,-3.41198186,0.46444241,88.07219191,0.58787555,0.95296192,-0.69265309,0.42056376,-4.27685254,0.00000000,-2.68586012,2.64370686,-0.99954739,2.04148033,0.00000000,1.03404721,-3.79430245,-5.00000214
1.85500000,-3.39714944,0.47548339,88.09821960,0.58794756,0.95299772,-0.69265110,0.38006901,-4.25998929,0.00000000,-2.64714071,2.59351317,-0.96319121,2.01255515,0.00000000,0.93702467,-3.76137927,-5.00000214
1.86000000,-3.45745340,0.45581422,88.03015525,0.58814246,0.95296229,-0.69260919,0.55262445,-4.31966855,0.00000000,-2.93870471,2.98436083,-1.05975222,2.07866494,0.00000000,1.19007199,-4.11569735,-5.00000214
1.86500000,-3.43215068,0.42165333,88.05683441,0.58810181,0.95291813,-0.69271415,0.53286022,-4.29198207,0.00000000,-2.83165201,2.80477103,-0.98064075,2.05047290,0.00000000,1.08924158,-3.98314829,-5.00000214
1.87000000,-3.45421553,0.42486998,88.03255636,0.58814627,0.95288793,-0.69276299,0.57995348,-4.31239509,0.00000000,-2.93007311,2.97843249,-1.02926331,2.07144964,0.00000000,1.18795154,-4.15424356,-5.00000214
1.87500000,-3.44355012,0.42623529,88.05319152,0.58810889,0.95285098,-0.69287018,0.52762940,-4.29758037,0.00000000,-2.84870234,2.87592977,-1.04936753,2.06305239,0.00000000,1.20448170,-4.03716203,-5.00000214
1.88000000,-3.41439860,0.43144763,88.08359701,0.58817047,0.95288620,-0.69290197,0.46591794,-4.25869170,0.00000000,-2.75040848,2.76724151,-1.04960817,2.02224367,0.00000000,1.18245859,-3.93501698,-5.00000214
1.88500000,-3.41510405,0.42884527,88.08208622,0.58814159,0.95295085,-0.69297551,0.45863134,-4.27291886,0.00000000,-2.75298892,2.76780408,-1.05225871,2.03046203,0.00000000,1.17689637,-3.95791035,-5.00000214
1.89000000,-3.38968856,0.41868428,88.08515645,0.58820058,0.95295089,-0.69307352,0.42052612,-4.23903577,0.00000000,-2.66777628,2.69056802,-1.03302816,2.00130217,0.00000000,1.14034555,-3.87740651,-5.00000214
1.89500000,-3.44988487,0.46863841,88.01869134,0.58840122,0.95294898,-0.69307796,0.48858039,-4.29790351,0.00000000,-2.90108794,2.99866285,-1.18439333,2.05884692,0.00000000,1.35692208,-4.21420165,-5.00000214
1.90000000,-3.42762958,0.43343962,88.05202626,0.58827253,0.95283414,-0.69321208,0.46994426,-4.27497005,0.00000000,-2.80332612,2.85065356,-1.11467574,2.03641098,0.00000000,1.27851530,-4.10685446,-5.00000214
1.90500000,-3.39096745,0.41759587,88.07540103,0.58831398,0.95284660,-0.69335031,0.41254637,-4.23736198,0.00000000,-2.67824690,2.72841095,-1.08731922,1.98618576,0.00000000,1.22790287,-3.99484065,-5.00000214
1.91000000,-3.39245111,0.41871006,88.08092970,0.58828333,0.95287023,-0.69342033,0.37181691,-4.23311669,0.00000000,-2.59913164,2.62147674,-1.07935328,1.99875252,0.00000000,1.18999100,-3.86225418,-5.00000214
1.91500000,-3.44815931,0.46153916,88.01476508,0.58844582,0.95291553,-0.69336797,0.45616623,-4.29177071,0.00000000,-2.86122434,3.01906176,-1.21228931,2.05915425,0.00000000,1.37858708,-4.14424488,-5.00000214
1.92000000,-3.41438679,0.45127003,88.06122994,0.58847398,0.95296789,-0.69332245,0.43696783,-4.25634502,0.00000000,-2.81709157,2.95555142,-1.15721965,2.01561107,0.00000000,1.30474836,-4.11715977,-5.00000214
1.92500000,-3.38589382,0.40094786,88.05286218,0.58852990,0.95290785,-0.69350604,0.43866741,-4.21609480,0.00000000,-2.71312044,2.79400121,-1.08272024,1.97907450,0.00000000,1.22715923,-3.99743757,-5.00000214
1.93000000,-3.39511419,0.40659122,88.09556278,0.58847283,0.95292590,-0.69343596,0.40507629,-4.22483129,0.00000000,-2.64931215,2.69505839,-1.04950170,1.98922980,0.00000000,1.17143485,-3.90135016,-5.00000214
1.93500000,-3.36357222,0.34261534,88.05377467,0.58862309,0.95281764,-0.69382615,0.40994678,-4.18552706,0.00000000,-2.56401074,2.64240326,-1.01895040,1.93860316,0.00000000,1.17087346,-3.86466312,-5.00000214
1.94000000,-3.37289345,0.39281837,88.11359759,0.58859374,0.95284546,-0.69372654,0.33250507,-4.18932825,0.00000000,-2.51707420,2.56956107,-1.04541806,1.95422327,0.00000000,1.13716079,-3.78783920,-5.00000214
1.94500000,-3.34748426,0.37237745,88.11034326,0.58861756,0.95284427,-0.69393827,0.30863213,-4.16959612,0.00000000,-2.46142687,2.53466284,-1.03651172,1.92854302,0.00000000,1.12500030,-3.76096740,-5.00000214
1.95000000,-3.43420609,0.48859799,88.04636678,0.58876837,0.95293374,-0.69377074,0.34435453,-4.25659027,0.00000000,-2.76305675,2.99414641,-1.24169928,2.02076966,0.00000000,1.33095506,-4.16692821,-5.00000214
1.95500000,-3.42989196,0.39187778,88.01524965,0.58876589,0.95283304,-0.69396296,0.44512013,-4.25093424,0.00000000,-2.76809265,2.95146887,-1.19609677,2.01061449,0.00000000,1.42300893,-4.21936595,-5.00000214
1.96000000,-3.41386512,0.40885278,88.05280078,0.58878561,0.95288872,-0.69391506,0.36858679,-4.22676691,0.00000000,-2.64180856,2.77573548,-1.15895589,1.98759664,0.00000000,1.31173254,-4.04475090,-5.00000214
1.96500000,-3.39183180,0.38418826,88.07503608,0.58875004,0.95287332,-0.69403808,0.34261511,-4.20279724,0.00000000,-2.55475979,2.65853003,-1.10065602,1.96632056,0.00000000,1.22634271,-3.93124720,-5.00000214
1.97000000,-3.37082749,0.36799838,88.09123149,0.58883716,0.95289482,-0.69409484,0.32300242,-4.18093047,0.00000000,-2.49654054,2.58677605,-1.06069595,1.93727927,0.00000000,1.17012704,-3.85431484,-5.00000214
1.97500000,-3.36160402,0.36184645,88.10063952,0.58886398,0.95288004,-0.69417799,0.30309665,-4.16149966,0.00000000,-2.44995543,2.52052563,-1.04001272,1.93035184,0.00000000,1.12732014,-3.74612521,-5.00000214
1.98000000,-3.34202971,0.34145573,88.11381618,0.58883561,0.95278992,-0.69429883,0.29863774,-4.14162890,0.00000000,-2.41749089,2.49679217,-1.00395701,1.90902890,0.00000000,1.08546867,-3.72629001,-5.00000214
1.98500000,-3.46398419,0.36563745,87.95773256,0.58905347,0.95275040,-0.69428474,0.48754109,-4.28238747,0.00000000,-2.78125042,2.67819668,-1.21026530,2.03652627,0.00000000,1.45618260,-4.16333314,-5.00000214
1.99000000,-3.43810300,0.41557874,87.95797239,0.58902031,0.95287691,-0.69425989,0.42957176,-4.27481239,0.00000000,-2.78503461,2.65476031,-1.24512053,2.00964941,0.00000000,1.41716844,-4.15119936,-5.00000214
1.99500000,-3.40410499,0.37044277,88.01309287,0.58907357,0.95287464,-0.69440057,0.37346171,-4.19969399,0.00000000,-2.62143653,2.70224271,-1.17138886,1.97086070,0.00000000,1.35240673,-4.05421199,-5.00000214
2.00000000,-3.38841606,0.35859677,88.04997743,0.58905518,0.95289760,-0.69452068,0.31503292,-4.18275081,0.00000000,-2.50517925,2.65006216,-1.13411763,1.95422952,0.00000000,1.27702335,-3.89997331,-5.00000214
2.00500000,-3.42730078,0.36632076,88.00039074,0.58922793,0.95283305,-0.69453178,0.41709101,-4.21563061,0.00000000,-2.73590720,3.01407490,-1.21356022,1.98258479,0.00000000,1.43485752,-4.20117692,-5.00000214
2.01000000,-3.41521088,0.31865650,88.01958815,0.58921531,0.95274276,-0.69467228,0.42440651,-4.19761479,0.00000000,-2.65563635,2.88222095,-1.13738805,1.96675456,0.00000000,1.36530114,-4.09736955,-5.00000214
2.01500000,-3.38183010,0.28666290,88.05440452,0.58918158,0.95270165,-0.69483253,0.36796598,-4.16090905,0.00000000,-2.50604837,2.71854519,-1.08112518,1.92841959,0.00000000,1.29260039,-3.92774864,-5.00000214
2.02000000,-3.41585949,0.34622470,88.02630961,0.58926880,0.95281215,-0.69481301,0.35195588,-4.20013100,0.00000000,-2.60536306,2.82728951,-1.16084505,1.96615894,0.00000000,1.31862889,-4.02072243,-5.00000214
2.02500000,-3.39004046,0.32379637,88.04477442,0.58936496,0.95278354,-0.69488310,0.32024138,-4.16051226,0.00000000,-2.50721458,2.75726558,-1.12622440,1.92953422,0.00000000,1.28330060,-3.92807238,-5.00000214
2.03000000,-3.39175082,0.34298279,88.04810499,0.58946486,0.95283429,-0.69494556,0.27481186,-4.15772670,0.00000000,-2.45908700,2.67932666,-1.13157202,1.92955226,0.00000000,1.23994241,-3.85529310,-5.00000214
2.03500000,-3.44030855,0.35265163,87.99291645,0.58949301,0.95280303,-0.69502104,0.37256851,-4.20921717,0.00000000,-2.68106991,3.00057208,-1.22648587,1.98499361,0.00000000,1.41368509,-4.09394215,-5.00000214
2.04000000,-3.39969004,0.29788312,88.02025395,0.58943552,0.95271629,-0.69515158,0.36445901,-4.16196748,0.00000000,-2.55623494,2.79846070,-1.12472525,1.93412190,0.00000000,1.31465393,-3.96204757,-5.00000214
2.04500000,-3.38043663,0.28504810,88.04298203,0.58953607,0.95268432,-0.69520085,0.32569305,-4.13154263,0.00000000,-2.45579144,2.68497974,-1.08115614,1.90003514,0.00000000,1.24362046,-3.86409443,-5.00000214
2.05000000,-3.41406506,0.32306337,88.02519845,0.58957591,0.95276060,-0.69519739,0.33670046,-4.16907087,0.00000000,-2.56637549,2.82324069,-1.14682399,1.94285914,0.00000000,1.29369630,-3.98494664,-5.00000214
2.05500000,-3.37884585,0.30454425,88.06170822,0.58962670,0.95274787,-0.69530517,0.28622412,-4.12597446,0.00000000,-2.45622764,2.74588340,-1.12210089,1.89625533,0.00000000,1.26286133,-3.92262563,-5.00000214
2.06000000,-3.38835452,0.29453051,88.04685635,0.58964518,0.95275855,-0.69541093,0.29032350,-4.13748259,0.00000000,-2.45296974,2.75373168,-1.11883681,1.91392879,0.00000000,1.26370961,-3.92596531,-5.00000214
2.06500000,-3.35445156,0.25966218,88.06115700,0.58954089,0.95270549,-0.69555710,0.29199374,-4.10352279,0.00000000,-2.39199645,2.65234057,-1.05425461,1.87951871,0.00000000,1.19130287,-3.86021253,-5.00000214
2.07000000,-3.36687133,0.25248500,88.03844864,0.58966791,0.95269097,-0.69559084,0.29058044,-4.10792012,0.00000000,-2.35438143,2.59406256,-1.04593473,1.88325044,0.00000000,1.18567505,-3.76208030,-5.00000214
2.07500000,-3.34807226,0.23436001,88.05017537,0.58967356,0.95260653,-0.69574154,0.27263300,-4.08463880,0.00000000,-2.30126444,2.53867683,-1.02624516,1.86077527,0.00000000,1.15713874,-3.70448595,-5.00000214
2.08000000,-3.41049563,0.27537779,87.97732675,0.58975872,0.95258676,-0.69580059,0.37011906,-4.15757138,0.00000000,-2.60845902,3.01865287,-1.18999334,1.92638679,0.00000000,1.40873464,-4.13598907,-5.00000214
2.08500000,-3.39622015,0.26754555,87.98914269,0.58980911,0.95262632,-0.69595335,0.32127480,-4.13634101,0.00000000,-2.51120340,2.89128232,-1.18879652,1.91305629,0.00000000,1.38406480,-3.99669422,-5.00000214
2.09000000,-3.37384375,0.27021339,88.01203101,0.58988813,0.95262798,-0.69602101,0.26952085,-4.10218891,0.00000000,-2.42147898,2.76780165,-1.17179932,1.88428969,0.00000000,1.32786393,-3.86475052,-5.00000214
2.09500000,-3.41634241,0.31497897,87.96834927,0.59000466,0.95266551,-0.69606676,0.29266627,-4.14728682,0.00000000,-2.57491194,3.05738530,-1.27430810,1.92262585,0.00000000,1.44074066,-4.12527428,-5.00000214
2.10000000,-3.38683086,0.28347360,87.98719405,0.59000355,0.95261309,-0.69615025,0.28001043,-4.10948538,0.00000000,-2.48383290,2.87624971,-1.20400844,1.88442165,0.00000000,1.36029464,-4.01358884,-5.00000214
2.10500000,-3.42685931,0.26066231,87.96236092,0.59004750,0.95261904,-0.69623265,0.33590498,-4.15227688,0.00000000,-2.55634189,2.99783692,-1.23303672,1.92804675,0.00000000,1.46005201,-4.14686870,-5.00000214
2.11000000,-3.42315185,0.23731775,87.97966102,0.59010215,0.95264672,-0.69627914,0.33673099,-4.14599706,0.00000000,-2.52326693,2.96624312,-1.20395551,1.92745152,0.00000000,1.44659197,-4.09600142,-5.00000214
2.11500000,-3.39287956,0.21333118,88.00239094,0.59015784,0.95258431,-0.69639984,0.32371897,-4.10684194,0.00000000,-2.46243724,2.88371973,-1.14968499,1.88369807,0.00000000,1.37645903,-4.02883054,-5.00000214
2.12000000,-3.38054936,0.21528903,88.00775958,0.59023526,0.95260604,-0.69649869,0.28556582,-4.08519460,0.00000000,-2.39465101,2.79453931,-1.13978384,1.86849689,0.00000000,1.33125031,-3.90398644,-5.00000214
2.12500000,-3.33969835,0.18556044,88.01395509,0.59017678,0.95249829,-0.69668267,0.27032205,-4.03817620,0.00000000,-2.31751900,2.69347054,-1.08812599,1.81987479,0.00000000,1.26084955,-3.84202575,-5.00000214
2.13000000,-3.39189989,0.22683532,87.98588246,0.59024544,0.95254150,-0.69667141,0.27279647,-4.09719874,0.00000000,-2.42140288,2.88151057,-1.16704030,1.87765187,0.00000000,1.33156973,-3.98827109,-5.00000214
2.13500000,-3.39060512,0.23265196,87.97835079,0.59028153,0.95260827,-0.69671705,0.25816231,-4.09698899,0.00000000,-2.41329145,2.88761932,-1.19100995,1.88045953,0.00000000,1.35664548,-3.95472815,-5.00000214
2.14000000,-3.35937466,0.21039581,88.02902942,0.59031074,0.95260974,-0.69682489,0.22461255,-4.05659057,0.00000000,-2.32545405,2.77472720,-1.15315617,1.84007934,0.00000000,1.31379669,-3.84933545,-5.00000214
2.14500000,-3.41567273,0.22766880,87.95901027,0.59038379,0.95259592,-0.69693386,0.29923240,-4.12118731,0.00000000,-2.52331474,3.11753649,-1.25715154,1.90547178,0.00000000,1.48620596,-4.09291622,-5.00000214
2.15000000,-3.39001204,0.21572033,87.97841122,0.59037753,0.95254328,-0.69705633,0.26740207,-4.08799853,0.00000000,-2.43997189,2.95366764,-1.20505308,1.87435759,0.00000000,1.38839098,-3.98519922,-5.00000214
2.15500000,-3.38012200,0.19917605,88.00081129,0.59026824,0.95252908,-0.69720992,0.21800316,-4.08214257,0.00000000,-2.32457038,2.83168652,-1.17989626,1.86543576,0.00000000,1.34522370,-3.86826925,-5.00000214
2.16000000,-3.35607739,0.19457992,88.01759459,0.59032122,0.95252022,-0.69732832,0.17062971,-4.04925923,0.00000000,-2.24577221,2.74631144,-1.17820133,1.83160001,0.00000000,1.32503150,-3.76625465,-5.00000214
2.16500000,-3.39661296,0.22201954,87.93789563,0.59051688,0.95253213,-0.69742422,0.22244789,-4.09114965,0.00000000,-2.41728765,3.02890078,-1.30196754,1.87594054,0.00000000,1.50256517,-4.05146838,-5.00000214
2.17000000,-3.38566471,0.24986069,87.96132954,0.59069995,0.95257144,-0.69739860,0.17684011,-4.06598526,0.00000000,-2.38946213,2.97401160,-1.30613450,1.85517692,0.00000000,1.46377723,-3.99355203,-5.00000214
2.17500000,-3.37937011,0.23368825,87.99386232,0.59074433,0.95257909,-0.69749440,0.14384391,-4.05198752,0.00000000,-2.30013008,2.84496556,-1.25923633,1.84575078,0.00000000,1.39217515,-3.86190333,-5.00000214
2.18000000,-3.36140214,0.18400521,88.01510458,0.59065597,0.95250493,-0.69773201,0.13051871,-4.03247449,0.00000000,-2.19628663,2.73538498,-1.19038826,1.82353950,0.00000000,1.32498471,-3.77799319,-5.00000214
2.18500000,-3.41283166,0.27319941,87.97274702,0.59083136,0.95261863,-0.69756377,0.14916954,-4.07891156,0.00000000,-2.40494289,3.04225228,-1.33349140,1.86899001,0.00000000,1.45935033,-4.05042840,-5.00000214
2.19000000,-3.38154735,0.26110028,88.01516262,0.59083702,0.95266172,-0.69770267,0.07811794,-4.04520895,0.00000000,-2.27416725,2.91133296,-1.32075545,1.82915826,0.00000000,1.42506893,-3.89621509,-5.00000214
2.19500000,-3.35369201,0.23689941,88.02628906,0.59084036,0.95266950,-0.69777993,0.05139877,-4.01594460,0.00000000,-2.17884804,2.77058185,-1.26676486,1.80954190,0.00000000,1.34371001,-3.75604423,-5.00000214
2.20000000,-3.34499145,0.22745586,88.03432533,0.59087843,0.95263520,-0.69785993,0.05297832,-4.00335107,0.00000000,-2.16704301,2.74742017,-1.24164762,1.79803874,0.00000000,1.30814401,-3.75470655,-5.00000214
2.20500000,-3.34455304,0.22380951,88.05471676,0.59089441,0.95260655,-0.69792616,0.04389142,-4.00010963,0.00000000,-2.14369858,2.68348662,-1.21308265,1.79224005,0.00000000,1.25496136,-3.71329057,-5.00000214
2.21000000,-3.32625637,0.18279114,88.03161682,0.59086558,0.95248913,-0.69812129,0.06249072,-3.97917242,0.00000000,-2.10151312,2.65354099,-1.17451738,1.77191115,0.00000000,1.23850682,-3.69332039,-5.00000214
2.21500000,-3.38781270,0.28939607,88.03254582,0.59092626,0.95268584,-0.69794866,0.01889753,-4.04520950,0.00000000,-2.23400115,2.83173642,-1.30969069,1.83345732,0.00000000,1.30154000,-3.82014830,-5.00000214
2.22000000,-3.40011212,0.25937434,88.01991295,0.59102440,0.95270811,-0.69800307,0.05247368,-4.05466513,0.00000000,-2.25341783,2.89876922,-1.31192413,1.84535946,0.00000000,1.36193298,-3.84149591,-5.00000214
2.22500000,-3.37088397,0.25794929,88.00337956,0.59107061,0.95269753,-0.69808789,0.06113170,-4.02382716,0.00000000,-2.28338818,2.94263204,-1.32503776,1.81613460,0.00000000,1.37721114,-3.87926306,-5.00000214
2.23000000,-3.35153353,0.23889589,88.05380243,0.59108936,0.95268302,-0.69815398,0.01443139,-4.00702106,0.00000000,-2.16492076,2.78105012,-1.28485004,1.79185427,0.00000000,1.32798834,-3.70394384,-5.00000214
2.23500000,-3.36379691,0.21998056,88.05729687,0.59105499,0.95256956,-0.69823408,0.02987922,-4.01470255,0.00000000,-2.15502935,2.73973080,-1.23280586,1.80145921,0.00000000,1.26684949,-3.71770187,-5.00000214
2.24000000,-3.35186088,0.20028820,88.06211157,0.59106569,0.95250873,-0.69841898,0.01265348,-3.99476039,0.00000000,-2.09884631,2.65683985,-1.21625549,1.78528869,0.00000000,1.24067348,-3.63850867,-5.00000214
2.24500000,-3.35255992,0.23665416,88.10110042,0.59112079,0.95256495,-0.69837960,-0.05079858,-3.99030699,0.00000000,-2.05835727,2.62044958,-1.23290429,1.78132002,0.00000000,1.20842475,-3.61985531,-5.00000214
2.25000000,-3.34376682,0.22814991,88.10888259,0.59120025,0.95258715,-0.69843477,-0.06648045,-3.97767388,0.00000000,-2.02584319,2.59382050,-1.21252894,1.76975399,0.00000000,1.17604854,-3.60155534,-5.00000214
2.25500000,-3.40893156,0.24789898,88.02108824,0.59140993,0.95267966,-0.69846747,0.06623403,-4.04511318,0.00000000,-2.33568697,3.03823455,-1.37891372,1.83344360,0.00000000,1.47649110,-4.02024915,-5.00000214
2.26000000,-3.37098345,0.22815600,88.04698282,0.59139847,0.95266021,-0.69855145,0.04080556,-4.00140965,0.00000000,-2.25748504,2.90269760,-1.28850815,1.78731485,0.00000000,1.33507382,-3.93301987,-5.00000214
2.26500000,-3.34992038,0.20892468,88.05702276,0.59148006,0.95261972,-0.69866555,0.01224182,-3.96900681,0.00000000,-2.16201213,2.79721611,-1.26617652,1.75904384,0.00000000,1.30340643,-3.79768139,-5.00000214
2.27000000,-3.34887342,0.20184909,88.09091588,0.59141507,0.95262566,-0.69872574,-0.02695549,-3.96737493,0.00000000,-2.08398983,2.69930089,-1.21801599,1.75740245,0.00000000,1.21614525,-3.71028562,-5.00000214
2.27500000,-3.34012378,0.21884735,88.08242425,0.59145421,0.95260306,-0.69880610,-0.04723438,-3.97693344,0.00000000,-2.07723082,2.51878931,-1.22756830,1.74774435,0.00000000,1.16917715,-3.64167757,-5.00000214
2.28000000,-3.38737678,0.20989629,88.03610988,0.59160348,0.95264760,-0.69878885,0.07272155,-4.00793757,0.00000000,-2.32417123,3.08702373,-1.29387278,1.79650411,0.00000000,1.35011897,-4.01670879,-5.00000214
2.28500000,-3.41858560,0.19736168,87.99040747,0.59155931,0.95260975,-0.69884236,0.12980500,-4.06511496,0.00000000,-2.36989437,2.79221007,-1.30020910,1.83758146,0.00000000,1.37090261,-3.97047111,-5.00000214
2.29000000,-3.39243645,0.13327944,87.97285147,0.59161335,0.95248360,-0.69911421,0.13994915,-4.03072277,0.00000000,-2.26832333,2.69685296,-1.24565102,1.80484312,0.00000000,1.35435767,-3.88820178,-5.00000214
2.29500000,-3.38828029,0.16474359,87.99433174,0.59164779,0.95252467,-0.69917133,0.09981691,-4.00443772,0.00000000,-2.30290444,3.05566263,-1.28896824,1.79021029,0.00000000,1.38799409,-4.00744048,-5.00000214
2.30000000,-3.40551261,0.21069158,88.01380119,0.59164858,0.95260413,-0.69910387,0.05649658,-4.02536388,0.00000000,-2.32176885,3.07636560,-1.33495411,1.81451051,0.00000000,1.38339019,-3.92390933,-5.00000214
2.30500000,-3.37060445,0.16717440,88.02328761,0.59164614,0.95254134,-0.69931443,0.01831087,-3.98598913,0.00000000,-2.17559833,2.89635837,-1.27961777,1.77617775,0.00000000,1.31751977,-3.73583665,-5.00000214
2.31000000,-3.34893374,0.20407882,88.09202975,0.59161998,0.95257765,-0.69923578,-0.05946086,-3.96318815,0.00000000,-2.11439451,2.80674918,-1.28673184,1.75350363,0.00000000,1.27126591,-3.63157631,-5.00000214
2.31500000,-3.34572616,0.14800204,88.04459022,0.59169668,0.95247308,-0.69950487,-0.01939245,-3.95289546,0.00000000,-2.08496949,2.80653645,-1.25341896,1.74558790,0.00000000,1.27892743,-3.65296917,-5.00000214
2.32000000,-3.32926706,0.13572903,88.06805660,0.59178108,0.95244281,-0.69958688,-0.04243005,-3.92182150,0.00000000,-2.02406313,2.71211053,-1.22487951,1.71683150,0.00000000,1.23748520,-3.59434069,-5.00000214
2.32500000,-3.40113958,0.14770801,87.96393136,0.59189531,0.95243217,-0.69960625,0.08748401,-4.00189598,0.00000000,-2.29644166,3.07437708,-1.37221871,1.79487176,0.00000000,1.51357307,-3.94236767,-5.00000214
2.33000000,-3.35654696,0.12090411,88.01495861,0.59198501,0.95243828,-0.69971644,0.03189732,-3.94449740,0.00000000,-2.16019049,2.90937846,-1.31484134,1.73711954,0.00000000,1.43750353,-3.80363110,-5.00000214
2.33500000,-3.33991489,0.12798797,88.01193552,0.59201006,0.95248640,-0.69984871,-0.01869873,-3.92859076,0.00000000,-2.07975409,2.82433671,-1.31910627,1.72587589,0.00000000,1.39970454,-3.69524391,-5.00000214
2.34000000,-3.37285816,0.11585041,87.99891178,0.59215866,0.95247344,-0.69987138,0.07730925,-3.95244596,0.00000000,-2.25324474,3.07412391,-1.28262177,1.74503648,0.00000000,1.38124313,-3.95320820,-5.00000214
2.34500000,-3.34632652,0.07515946,87.99848802,0.59217042,0.95242274,-0.70005570,0.06358555,-3.92002991,0.00000000,-2.14883929,2.94248960,-1.25691923,1.72073056,0.00000000,1.38061543,-3.75476211,-5.00000214
2.35000000,-3.34635297,0.07556459,88.03834744,0.59215447,0.95245413,-0.70010535,0.00398212,-3.91708816,0.00000000,-2.04476894,2.82538190,-1.22442012,1.70850416,0.00000000,1.30423116,-3.64766007,-5.00000214
2.35500000,-3.36751046,0.09284524,87.96547077,0.59223201,0.95244367,-0.70009853,0.09006959,-3.94068242,0.00000000,-2.25103529,3.13149154,-1.28761636,1.73373676,0.00000000,1.39178785,-3.88546847,-5.00000214
2.36000000,-3.36804952,0.07042307,87.97025171,0.59235518,0.95244698,-0.70014686,0.07988886,-3.93399480,0.00000000,-2.18893537,3.05036694,-1.26294342,1.72616706,0.00000000,1.37361691,-3.80861924,-5.00000214
2.36500000,-3.35342539,0.08119245,87.95376765,0.59241488,0.95243412,-0.70023868,0.07989674,-3.91961226,0.00000000,-2.23053093,3.09807247,-1.29023143,1.71326290,0.00000000,1.39001151,-3.82858396,-5.00000214
2.37000000,-3.35056479,0.04863030,87.96680342,0.59237639,0.95233865,-0.70043208,0.07519948,-3.91901090,0.00000000,-2.17581398,3.03008656,-1.26354265,1.71479454,0.00000000,1.38381375,-3.75703887,-5.00000214
2.37500000,-3.32730688,0.04712996,88.00569831,0.59241497,0.95226211,-0.70051829,0.01876661,-3.88265420,0.00000000,-2.06704495,2.90118486,-1.27674339,1.68227216,0.00000000,1.39708741,-3.62899728,-5.00000214
2.38000000,-3.32904704,0.06292493,88.01428502,0.59232417,0.95226902,-0.70061488,-0.03869676,-3.88977642,0.00000000,-1.99532761,2.80071924,-1.24844035,1.68071086,0.00000000,1.29802378,-3.58309443,-5.00000214
2.38500000,-3.38304556,0.11375855,87.95010595,0.59247151,0.95233164,-0.70054235,0.01477778,-3.94550313,0.00000000,-2.20991647,3.12265037,-1.36858680,1.73664768,0.00000000,1.44552659,-3.88653619,-5.00000214
2.39000000,-3.37333127,0.08415959,87.93654282,0.59254849,0.95234589,-0.70063645,0.02727878,-3.93257624,0.00000000,-2.18998654,3.11572392,-1.34795007,1.72883742,0.00000000,1.44514134,-3.86018819,-5.00000214
2.39500000,-3.34785976,0.07579736,87.94467296,0.59260512,0.95234412,-0.70073176,0.00435833,-3.90279860,0.00000000,-2.13860738,3.04974208,-1.32285961,1.69578916,0.00000000,1.39589476,-3.79990936,-5.00000214
2.40000000,-3.34842670,0.13938831,87.98689595,0.59266911,0.95242753,-0.70057681,-0.04291293,-3.89765578,0.00000000,-2.17658472,3.08949718,-1.33535804,1.69419896,0.00000000,1.32596122,-3.81767003,-5.00000214
2.40500000,-3.32352673,0.09271834,87.98836632,0.59264253,0.95234766,-0.70084733,-0.05525423,-3.86689053,0.00000000,-2.06880077,2.93866912,-1.30179200,1.66118088,0.00000000,1.30780531,-3.67201855,-5.00000214
2.41000000,-3.31085830,0.08868153,88.02916200,0.59256139,0.95234907,-0.70092627,-0.10355702,-3.85632213,0.00000000,-1.97649552,2.82649914,-1.26944956,1.64782140,0.00000000,1.25204738,-3.59316470,-5.00000214
2.41500000,-3.37223040,0.10205335,87.96516725,0.59277072,0.95242538,-0.70090572,-0.01641512,-3.91322970,0.00000000,-2.18274967,3.15155967,-1.35257785,1.70898021,0.00000000,1.38790355,-3.80956930,-5.00000214
2.42000000,-3.32017444,0.10870245,88.01772359,0.59291424,0.95244490,-0.70093246,-0.10037731,-3.84449932,0.00000000,-2.04920691,2.98410178,-1.30977073,1.63951053,0.00000000,1.28008169,-3.67391909,-5.00000214
2.42500000,-3.30176895,0.09203134,88.02174463,0.59293705,0.95242036,-0.70105222,-0.12553770,-3.82319867,0.00000000,-1.97498777,2.91052472,-1.27804665,1.61857049,0.00000000,1.23466326,-3.65143296,-5.00000214
2.43000000,-3.29229273,0.08403508,88.06573506,0.59294405,0.95245001,-0.70109598,-0.15834587,-3.80469341,0.00000000,-1.90200009,2.80056633,-1.24511557,1.60548828,0.00000000,1.18999518,-3.56355526,-5.00000214
2.43500000,-3.28531552,0.10466543,88.07717410,0.59294843,0.95245382,-0.70106517,-0.19591892,-3.79662575,0.00000000,-1.85554558,2.71633623,-1.21810893,1.59213046,0.00000000,1.09903275,-3.51610633,-5.00000214
2.44000000,-3.31364867,0.13662932,88.04044553,0.59300265,0.95245103,-0.70119532,-0.21712060,-3.83055390,0.00000000,-1.89751022,2.85411345,-1.29509505,1.62113078,0.00000000,1.16041217,-3.56411182,-5.00000214
2.44500000,-3.29922027,0.14955317,88.06644905,0.59302605,0.95246351,-0.70126835,-0.25991395,-3.81192026,0.00000000,-1.86479597,2.79554621,-1.31515490,1.60670492,0.00000000,1.15853095,-3.50124741,-5.00000214
2.45000000,-3.29192756,0.13554029,88.06312389,0.59306546,0.95247744,-0.70145795,-0.28661748,-3.80044396,0.00000000,-1.81333866,2.75159811,-1.32528427,1.60263156,0.00000000,1.17320590,-3.42549817,-5.00000214
2.45500000,-3.27660085,0.14285411,88.03850654,0.59305458,0.95245959,-0.70153802,-0.30692081,-3.79210444,0.00000000,-1.79037500,2.72410847,-1.33039055,1.58759429,0.00000000,1.15066077,-3.42401693,-5.00000214
2.46000000,-3.36805325,0.20900883,87.95864241,0.59322585,0.95247143,-0.70144284,-0.21694097,-3.88478259,0.00000000,-2.08539606,3.09939827,-1.51058890,1.68041529,0.00000000,1.40879003,-3.87058932,-5.00000214
2.46500000,-3.33797066,0.16844357,88.00954600,0.59313082,0.95242412,-0.70157383,-0.24119799,-3.85490176,0.00000000,-1.97115322,2.92460874,-1.43365302,1.64350705,0.00000000,1.32857977,-3.73482499,-5.00000214
2.47000000,-3.35017311,0.18026339,87.96437122,0.59328496,0.95243446,-0.70152238,-0.19806877,-3.85671453,0.00000000,-2.06429098,3.05167349,-1.46685304,1.65556938,0.00000000,1.37546067,-3.85613784,-5.00000214
2.47500000,-3.33768578,0.18172734,87.98114875,0.59327501,0.95247357,-0.70159422,-0.25402449,-3.84745243,0.00000000,-1.97325324,2.97991032,-1.44414658,1.64210433,0.00000000,1.31325127,-3.75816923,-5.00000214
2.48000000,-3.29895446,0.17244236,88.03040571,0.59329185,0.95249936,-0.70168226,-0.30811827,-3.79975009,0.00000000,-1.87377334,2.85220358,-1.40633744,1.59352221,0.00000000,1.24783337,-3.62017047,-5.00000214
2.48500000,-3.28043869,0.16388726,88.03557780,0.59323224,0.95249953,-0.70176963,-0.33452172,-3.78287161,0.00000000,-1.80429488,2.76686472,-1.37471288,1.57709954,0.00000000,1.18449567,-3.55878013,-5.00000214
2.49000000,-3.28318480,0.16459107,88.00671958,0.59331046,0.95253285,-0.70184335,-0.34775220,-3.77985087,0.00000000,-1.76721161,2.72880916,-1.37707625,1.58076667,0.00000000,1.16828413,-3.50349565,-5.00000214
2.49500000,-3.33266429,0.19005618,87.94212391,0.59343790,0.95253684,-0.70182709,-0.25769000,-3.83594182,0.00000000,-2.00623300,3.10048773,-1.48136145,1.62648613,0.00000000,1.33701937,-3.83264303,-5.00000214
2.50000000,-3.31028309,0.16930507,87.96490924,0.59349756,0.95250714,-0.70194454,-0.29746576,-3.80223821,0.00000000,-1.89901512,2.95723881,-1.45184572,1.60191133,0.00000000,1.29901217,-3.68873837,-5.00000214
2.50500000,-3.29449526,0.16282601,87.98463813,0.59346613,0.95251656,-0.70204295,-0.34218719,-3.78788703,0.00000000,-1.80600928,2.83361203,-1.42404726,1.58656307,0.00000000,1.23786162,-3.58544445,-5.00000214
2.51000000,-3.27641024,0.19211830,88.03233921,0.59347054,0.95256534,-0.70200488,-0.41610448,-3.76543493,0.00000000,-1.72988138,2.73983514,-1.42531364,1.56216495,0.00000000,1.18501807,-3.49986945,-5.00000214
2.51500000,-3.26865851,0.16632013,88.02186341,0.59350373,0.95250227,-0.70210888,-0.41320959,-3.75132991,0.00000000,-1.68413895,2.68283690,-1.39890648,1.55495971,0.00000000,1.17317593,-3.44964486,-5.00000214
2.52000000,-3.31778514,0.19291877,87.95034351,0.59354440,0.95250356,-0.70216125,-0.38090250,-3.80853464,0.00000000,-1.79629116,2.85413499,-1.48200009,1.61311592,0.00000000,1.26487676,-3.58742383,-5.00000214
2.52500000,-3.32455311,0.21777253,87.94693535,0.59371050,0.95253447,-0.70218571,-0.39845732,-3.80723596,0.00000000,-1.82942815,2.88796672,-1.51990797,1.60539659,0.00000000,1.27496276,-3.61760024,-5.00000214
2.53000000,-3.34584900,0.20157577,87.93947214,0.59379200,0.95254056,-0.70221959,-0.36664461,-3.82458153,0.00000000,-1.86591877,2.96005331,-1.51678552,1.62559634,0.00000000,1.31376444,-3.67997618,-5.00000214
2.53500000,-3.30927430,0.17572811,87.98578603,0.59382466,0.95252730,-0.70236871,-0.41500288,-3.77896985,0.00000000,-1.75672905,2.85414585,-1.48022535,1.58113824,0.00000000,1.27593669,-3.54960367,-5.00000214
2.54000000,-3.31245479,0.15455655,87.97638258,0.59380726,0.95249630,-0.70245956,-0.42311230,-3.78332212,0.00000000,-1.68626244,2.73114870,-1.43647328,1.58531145,0.00000000,1.21204299,-3.44870112,-5.00000214
2.54500000,-3.29554544,0.16798818,88.00697313,0.59375615,0.95246774,-0.70241872,-0.45160540,-3.76550643,0.00000000,-1.64982557,2.66023817,-1.38097383,1.56073446,0.00000000,1.09121028,-3.47470953,-5.00000214
2.55000000,-3.28522696,0.14670256,87.99922947,0.59377769,0.95243806,-0.70256022,-0.47291307,-3.75465817,0.00000000,-1.57812664,2.62795125,-1.36654545,1.54570258,0.00000000,1.08126395,-3.44133661,-5.00000214
2.55500000,-3.28923663,0.13905059,87.96969774,0.59389934,0.95245060,-0.70268425,-0.46393213,-3.74813475,0.00000000,-1.59041707,2.68535440,-1.38938632,1.54490756,0.00000000,1.11583554,-3.46547169,-5.00000214
2.56000000,-3.29429303,0.16562094,87.95897264,0.59393237,0.95253776,-0.70267202,-0.47453207,-3.75934408,0.00000000,-1.63190218,2.73201771,-1.42470281,1.55069763,0.00000000,1.12728851,-3.50776272,-5.00000214
2.56500000,-3.24367253,0.13067519,87.97826867,0.59398995,0.95251142,-0.70278801,-0.47429598,-3.69440942,0.00000000,-1.58003559,2.68608146,-1.39627981,1.48901168,0.00000000,1.13606333,-3.43965454,-5.00000214
2.57000000,-3.24687005,0.11333239,87.96408377,0.59400271,0.95246208,-0.70286251,-0.45940806,-3.69761055,0.00000000,-1.56349389,2.65783600,-1.38208144,1.49498006,0.00000000,1.13321356,-3.42200050,-5.00000214
2.57500000,-3.26571639,0.12192995,87.93260868,0.59408906,0.95244104,-0.70293352,-0.46291125,-3.71375509,0.00000000,-1.57772579,2.70719291,-1.40269319,1.50783616,0.00000000,1.14876681,-3.47650923,-5.00000214
2.58000000,-3.34865630,0.12756653,87.84279074,0.59427607,0.95241468,-0.70289453,-0.30731744,-3.79889436,0.00000000,-1.88990316,3.08980730,-1.53943657,1.59496138,0.00000000,1.42820789,-3.88085418,-5.00000214
2.58500000,-3.31466834,0.11801560,87.88777744,0.59425795,0.95242923,-0.70306724,-0.38356485,-3.76051310,0.00000000,-1.75373383,2.95738610,-1.53567401,1.55885245,0.00000000,1.40517899,-3.70846547,-5.00000214
2.59000000,-3.32969956,0.16084124,87.88963471,0.59430081,0.95246701,-0.70298872,-0.42881565,-3.77635499,0.00000000,-1.74437044,2.93898511,-1.56199464,1.57613351,0.00000000,1.37414302,-3.70024780,-5.00000214
2.59500000,-3.34580468,0.13192938,87.84966631,0.59439828,0.95240925,-0.70312631,-0.35967276,-3.79016544,0.00000000,-1.83710204,3.09858378,-1.60504199,1.58708767,0.00000000,1.51372193,-3.92694098,-5.00000214
2.60000000,-3.33358544,0.11964904,87.85785911,0.59430946,0.95236061,-0.70322185,-0.38987048,-3.77926560,0.00000000,-1.74626062,2.94213076,-1.55402062,1.57750521,0.00000000,1.42339574,-3.79036007,-5.00000214
2.60500000,-3.35163349,0.11139975,87.82882373,0.59448991,0.95233454,-0.70326906,-0.36760175,-3.78545381,0.00000000,-1.76968423,2.98140219,-1.56637134,1.58760888,0.00000000,1.45448834,-3.80693481,-5.00000214
2.61000000,-3.32138744,0.11184594,87.87278344,0.59442762,0.95236649,-0.70338712,-0.44065852,-3.75807363,0.00000000,-1.65711961,2.85352766,-1.56509392,1.55442222,0.00000000,1.43154198,-3.64373708,-5.00000214
2.61500000,-3.32629352,0.11607619,87.83903821,0.59462072,0.95239993,-0.70341871,-0.44672369,-3.75273814,0.00000000,-1.64628187,2.87950423,-1.57245806,1.55266079,0.00000000,1.41479544,-3.67576774,-5.00000214
2.62000000,-3.33796750,0.17633301,87.79341747,0.59465919,0.95250217,-0.70345035,-0.44025804,-3.77243458,0.00000000,-1.79454530,3.05914341,-1.70204700,1.58017368,0.00000000,1.54239765,-3.69277678,-5.00000214
2.62500000,-3.32133759,0.14293931,87.83540284,0.59457751,0.95239075,-0.70354105,-0.45760665,-3.75568016,0.00000000,-1.71145900,2.98811648,-1.63073039,1.55264351,0.00000000,1.46845332,-3.69154361,-5.00000214
2.63000000,-3.29246485,0.07209519,87.81807211,0.59469192,0.95230030,-0.70376567,-0.42579895,-3.70983714,0.00000000,-1.63680766,2.93648068,-1.56431229,1.50963738,0.00000000,1.44994003,-3.66991876,-5.00000214
2.63500000,-3.28177890,0.09114961,87.88652513,0.59467174,0.95232045,-0.70374306,-0.49435228,-3.69343366,0.00000000,-1.55798369,2.83670715,-1.56557746,1.49049245,0.00000000,1.42292370,-3.57597130,-5.00000214
2.64000000,-3.29818201,0.07451759,87.84029042,0.59470520,0.95233395,-0.70388339,-0.48583806,-3.71278217,0.00000000,-1.53927844,2.84452138,-1.55925806,1.51445173,0.00000000,1.41311839,-3.58611490,-5.00000214
2.64500000,-3.32437441,-0.02827983,87.79759640,0.59487650,0.95225174,-0.70388790,-0.27555051,-3.73066959,0.00000000,-1.74567729,3.08617651,-1.48973592,1.52693794,0.00000000,1.51484598,-3.88045935,-5.00000214
2.65000000,-3.31467736,-0.01616902,87.80813541,0.59494804,0.95232315,-0.70395476,-0.31020840,-3.71718063,0.00000000,-1.71106649,3.05597457,-1.48995677,1.51748213,0.00000000,1.47652780,-3.79614697,-5.00000214
2.65500000,-3.27773835,-0.03164450,87.85070156,0.59494929,0.95229568,-0.70406487,-0.35481160,-3.66954309,0.00000000,-1.60869943,2.90897085,-1.43487927,1.46593083,0.00000000,1.38220586,-3.67930167,-5.00000214
2.66000000,-3.27381280,-0.01978785,87.87199386,0.59490756,0.95228086,-0.70404123,-0.40264973,-3.66644896,0.00000000,-1.53177669,2.80315689,-1.39639321,1.46195421,0.00000000,1.28551396,-3.58845808,-5.00000214
2.66500000,-3.29924797,-0.02101140,87.79998462,0.59493961,0.95228098,-0.70418466,-0.40655103,-3.69713258,0.00000000,-1.51066774,2.81030653,-1.41977420,1.49943997,0.00000000,1.28991611,-3.50228565,-5.00000214
2.67000000,-3.27637407,0.00982629,87.89377278,0.59492921,0.95228215,-0.70416893,-0.48528344,-3.66961698,0.00000000,-1.46203096,2.73979435,-1.42190797,1.46511525,0.00000000,1.24333398,-3.40781957,-5.00000214
2.67500000,-3.34393807,-0.02975113,87.79220563,0.59501815,0.95217674,-0.70423037,-0.29539984,-3.74707357,0.00000000,-1.74864993,3.08915194,-1.44732587,1.54101762,0.00000000,1.37123768,-3.65724168,-5.00000214
2.68000000,-3.32858818,-0.06852165,87.80634078,0.59516915,0.95202903,-0.70429558,-0.27971658,-3.71842290,0.00000000,-1.70594621,3.05419914,-1.50056113,1.51712165,0.00000000,1.54621254,-3.68106398,-5.00000214
2.68500000,-3.29911115,-0.08120307,87.83210763,0.59507577,0.95203961,-0.70445294,-0.31622223,-3.68414061,0.00000000,-1.61747015,2.89827875,-1.48181966,1.48793941,0.00000000,1.51946800,-3.57547460,-5.00000214
2.69000000,-3.33512938,0.01006151,87.80162628,0.59514493,0.95216697,-0.70428528,-0.34266364,-3.72318578,0.00000000,-1.74897568,3.10548138,-1.56637399,1.52206788,0.00000000,1.53879484,-3.90197273,-5.00000214
2.69500000,-3.35388485,-0.02516070,87.77306285,0.59519165,0.95217656,-0.70453033,-0.32664226,-3.74324336,0.00000000,-1.73767988,3.11120755,-1.55553827,1.54869503,0.00000000,1.54695029,-3.89498918,-5.00000214
2.70000000,-3.33233612,-0.03052290,87.78244484,0.59523496,0.95221592,-0.70453709,-0.33962205,-3.72286928,0.00000000,-1.70264349,3.07100467,-1.54846759,1.51964796,0.00000000,1.54759396,-3.81478128,-5.00000214
2.70500000,-3.31491080,-0.07453623,87.78056441,0.59525524,0.95212842,-0.70474720,-0.31384702,-3.70529540,0.00000000,-1.68686539,3.07032837,-1.50966704,1.49730388,0.00000000,1.53726309,-3.81191829,-5.00000214
2.71000000,-3.32102147,-0.06162749,87.78163741,0.59522384,0.95214763,-0.70481401,-0.34923621,-3.71035231,0.00000000,-1.63071527,2.97009113,-1.49577202,1.51358403,0.00000000,1.46298362,-3.64193104,-5.00000214
2.71500000,-3.29773491,-0.05284701,87.80542305,0.59517800,0.95213962,-0.70487209,-0.40397646,-3.68506587,0.00000000,-1.55454790,2.89419694,-1.46323564,1.48641526,0.00000000,1.37471804,-3.51747756,-5.00000214
2.72000000,-3.27752334,-0.04410006,87.84198499,0.59516576,0.95215245,-0.70500488,-0.46137520,-3.65884113,0.00000000,-1.48252401,2.81166500,-1.45182047,1.45561678,0.00000000,1.30125690,-3.42567943,-5.00000214
2.72500000,-3.35345328,-0.02085889,87.77919026,0.59535707,0.95222340,-0.70490848,-0.35577378,-3.73705283,0.00000000,-1.73656287,3.17996893,-1.53277975,1.53226090,0.00000000,1.42889375,-3.65387557,-5.00000214
2.73000000,-3.31431733,-0.03761209,87.82880167,0.59526729,0.95220256,-0.70502430,-0.40720319,-3.69998010,0.00000000,-1.62716567,3.02857781,-1.47436776,1.48631767,0.00000000,1.34019465,-3.52715892,-5.00000214
2.73500000,-3.28208977,-0.02188939,87.85533358,0.59541463,0.95221726,-0.70506455,-0.47828685,-3.65406230,0.00000000,-1.52566025,2.93000744,-1.46845721,1.44824849,0.00000000,1.28052535,-3.47268105,-5.00000214
2.74000000,-3.29113948,-0.06897343,87.84075665,0.59547970,0.95210563,-0.70523425,-0.42778474,-3.65622742,0.00000000,-1.53681037,2.95632836,-1.42951149,1.45494306,0.00000000,1.29199124,-3.52485834,-5.00000214
2.74500000,-3.29799838,-0.04360447,87.88131179,0.59555866,0.95216015,-0.70522648,-0.48171047,-3.65421525,0.00000000,-1.49147010,2.86717429,-1.44613913,1.45646115,0.00000000,1.27600761,-3.39982630,-5.00000214
2.75000000,-3.37134449,-0.01855388,87.80741066,0.59568604,0.95219221,-0.70517512,-0.38485438,-3.73177529,0.00000000,-1.72672570,3.16819118,-1.53948367,1.53548788,0.00000000,1.41130186,-3.60222313,-5.00000214
2.75500000,-3.33804961,-0.02804672,87.84882185,0.59568943,0.95218740,-0.70535095,-0.45230848,-3.69401615,0.00000000,-1.61074161,3.04410206,-1.51538891,1.49411513,0.00000000,1.35087573,-3.49578094,-5.00000214
2.76000000,-3.35695168,-0.02099481,87.83849058,0.59572650,0.95217684,-0.70540711,-0.43690400,-3.71653790,0.00000000,-1.67036596,3.16081157,-1.57870326,1.51089594,0.00000000,1.47660269,-3.81395276,-5.00000214
2.76500000,-3.33047890,-0.01256502,87.87839219,0.59579099,0.95217007,-0.70544822,-0.49308920,-3.67926569,0.00000000,-1.59107941,3.03853798,-1.54764353,1.47486852,0.00000000,1.39575190,-3.67093868,-5.00000214
2.77000000,-3.35005844,-0.00197122,87.84470427,0.59580446,0.95210546,-0.70555002,-0.46917253,-3.69899779,0.00000000,-1.66413999,3.15178260,-1.57929065,1.49726750,0.00000000,1.41757067,-3.70825146,-5.00000214
2.77500000,-3.30856407,-0.01624832,87.90048672,0.59578923,0.95210146,-0.70568901,-0.52772002,-3.64848904,0.00000000,-1.54639440,2.98237573,-1.54126641,1.44898015,0.00000000,1.35519213,-3.54957268,-5.00000214
2.78000000,-3.33867632,-0.02139422,87.84857582,0.59590012,0.95214190,-0.70575655,-0.48034624,-3.67880400,0.00000000,-1.63348288,3.15920408,-1.57592446,1.47795320,0.00000000,1.41804945,-3.71713589,-5.00000214
2.78500000,-3.32976445,-0.01777156,87.87528069,0.59589542,0.95224734,-0.70580173,-0.52632523,-3.67270359,0.00000000,-1.56286152,3.06835614,-1.56984666,1.47701182,0.00000000,1.38767005,-3.56247348,-5.00000214
2.79000000,-3.30332266,-0.03666186,87.88871094,0.59597160,0.95223362,-0.70597545,-0.55999048,-3.63503565,0.00000000,-1.47827233,2.99013607,-1.56054074,1.44342011,0.00000000,1.37598216,-3.44889420,-5.00000214
2.79500000,-3.27847788,-0.04399071,87.92385840,0.59599473,0.95220089,-0.70602063,-0.58759782,-3.60139060,0.00000000,-1.41705621,2.90470103,-1.53049729,1.40897214,0.00000000,1.33199651,-3.38814127,-5.00000214
2.80000000,-3.32123815,-0.05309757,87.83548976,0.59611403,0.95210989,-0.70617624,-0.48143669,-3.64793683,0.00000000,-1.61627735,3.19690356,-1.66657385,1.45233504,0.00000000,1.61590853,-3.86845682,-5.00000214
2.80500000,-3.31526800,-0.02706173,87.87232268,0.59612377,0.95215694,-0.70619999,-0.56160271,-3.63662000,0.00000000,-1.51731439,3.02762954,-1.62591763,1.43669622,0.00000000,1.47843084,-3.69964095,-5.00000214
2.81000000,-3.31307301,-0.02867340,87.86418398,0.59616840,0.95215130,-0.70627630,-0.56921892,-3.63478774,0.00000000,-1.51239505,3.04695135,-1.63101796,1.43660434,0.00000000,1.47800961,-3.69746183,-5.00000214
2.81500000,-3.28763169,-0.05556279,87.91839671,0.59625329,0.95212083,-0.70644511,-0.61129543,-3.59700456,0.00000000,-1.42056206,2.97691500,-1.63294880,1.40203868,0.00000000,1.51478446,-3.59090509,-5.00000214
2.82000000,-3.33430879,0.00457133,87.85781237,0.59635752,0.95215669,-0.70641788,-0.59790241,-3.64922951,0.00000000,-1.56160770,3.19784756,-1.74814348,1.45688785,0.00000000,1.62147322,-3.75435461,-5.00000214
2.82500000,-3.30057734,-0.01611020,87.91401846,0.59632394,0.95211857,-0.70652333,-0.64267620,-3.60496193,0.00000000,-1.45401602,3.04109664,-1.70044640,1.41375059,0.00000000,1.56438508,-3.61838389,-5.00000214
2.83000000,-3.35035508,0.02846808,87.86959803,0.59661908,0.95221045,-0.70641547,-0.65818553,-3.64308631,0.00000000,-1.48740428,3.08032068,-1.72615272,1.45319429,0.00000000,1.52300934,-3.68587119,-5.00000214
2.83500000,-3.28826561,0.01537757,87.90553047,0.59645809,0.95220252,-0.70655627,-0.72794840,-3.58620341,0.00000000,-1.35057590,2.95328574,-1.70537063,1.39316271,0.00000000,1.48199379,-3.57105001,-5.00000214
2.84000000,-3.34539272,0.04908805,87.83950404,0.59672139,0.95220831,-0.70657619,-0.67303793,-3.64033899,0.00000000,-1.52686283,3.17694228,-1.80801412,1.44951086,0.00000000,1.61094146,-3.70036306,-5.00000214
2.84500000,-3.28602886,-0.00828124,87.89727110,0.59656406,0.95212837,-0.70680015,-0.70057643,-3.58195363,0.00000000,-1.39363838,3.00732351,-1.72201865,1.38468543,0.00000000,1.53495921,-3.60400260,-5.00000214
2.85000000,-3.34984630,0.03574325,87.86701185,0.59690289,0.95217840,-0.70671994,-0.67281826,-3.62793813,0.00000000,-1.51902072,3.18427002,-1.79305381,1.44027710,0.00000000,1.61399045,-3.80689620,-5.00000214
2.85500000,-3.31390237,0.01221297,87.90100344,0.59685695,0.95216692,-0.70684199,-0.70850279,-3.58704816,0.00000000,-1.41637393,3.06092988,-1.75129071,1.39701096,0.00000000,1.56333584,-3.69854110,-5.00000214
2.86000000,-3.28177485,-0.00014951,87.92505991,0.59670042,0.95218965,-0.70693430,-0.75658830,-3.56250248,0.00000000,-1.31035732,2.93114922,-1.71664027,1.37293348,0.00000000,1.50286856,-3.55434213,-5.00000214
2.86500000,-3.32318779,-0.03362709,87.83512847,0.59689051,0.95220740,-0.70692960,-0.61121613,-3.60293545,0.00000000,-1.51775733,3.19679671,-1.74240949,1.41573080,0.00000000,1.60652140,-3.63933829,-5.00000214
2.87000000,-3.29475064,-0.00148000,87.86218546,0.59707734,0.95222065,-0.70695368,-0.68596362,-3.55775440,0.00000000,-1.44632580,3.10142817,-1.72659416,1.36889277,0.00000000,1.50535145,-3.62063776,-5.00000214
2.87500000,-3.30546381,-0.04935535,87.84185818,0.59709436,0.95220993,-0.70716740,-0.64816041,-3.56922583,0.00000000,-1.43998212,3.12314038,-1.70060661,1.38923548,0.00000000,1.52950394,-3.63465687,-5.00000214
2.88000000,-3.29870917,-0.02208403,87.87405833,0.59716839,0.95214908,-0.70713107,-0.70233222,-3.55328976,0.00000000,-1.38331107,3.03424875,-1.70269968,1.36777504,0.00000000,1.48612936,-3.55140168,-5.00000214
